x y z dist_scaled dist_frac flux_norm sig_norm wavelength redshift
0.19024 0.28520 0.36769 0.50273 0.00000 1.001 0.079 1574.240 0.01682
0.19052 0.28561 0.36822 0.50344 0.00181 0.932 0.076 1574.277 0.01685
0.19079 0.28602 0.36874 0.50416 0.00362 0.902 0.075 1574.314 0.01687
0.19106 0.28643 0.36927 0.50488 0.00543 0.877 0.074 1574.350 0.01689
0.19133 0.28683 0.36979 0.50560 0.00724 0.910 0.076 1574.387 0.01692
0.19160 0.28724 0.37032 0.50631 0.00906 0.937 0.077 1574.424 0.01694
0.19187 0.28765 0.37084 0.50703 0.01087 0.970 0.078 1574.461 0.01697
0.19215 0.28805 0.37137 0.50775 0.01268 0.875 0.074 1574.497 0.01699
0.19242 0.28846 0.37189 0.50847 0.01449 0.915 0.076 1574.534 0.01701
0.19269 0.28887 0.37242 0.50918 0.01630 1.032 0.081 1574.571 0.01704
0.19296 0.28928 0.37294 0.50990 0.01811 0.853 0.073 1574.607 0.01706
0.19323 0.28968 0.37347 0.51062 0.01992 1.080 0.083 1574.644 0.01708
0.19350 0.29009 0.37399 0.51134 0.02174 1.010 0.080 1574.681 0.01711
0.19378 0.29050 0.37452 0.51206 0.02355 0.908 0.076 1574.718 0.01713
0.19405 0.29091 0.37504 0.51277 0.02536 0.864 0.074 1574.754 0.01715
0.19432 0.29131 0.37557 0.51349 0.02717 0.904 0.076 1574.791 0.01718
0.19459 0.29172 0.37609 0.51421 0.02898 0.964 0.078 1574.828 0.01720
0.19486 0.29213 0.37662 0.51493 0.03080 1.101 0.084 1574.864 0.01723
0.19513 0.29253 0.37714 0.51565 0.03261 0.907 0.076 1574.901 0.01725
0.19541 0.29294 0.37767 0.51636 0.03442 1.058 0.082 1574.938 0.01727
0.19568 0.29335 0.37819 0.51708 0.03623 0.962 0.078 1574.975 0.01730
0.19595 0.29376 0.37872 0.51780 0.03804 1.041 0.082 1575.011 0.01732
0.19622 0.29416 0.37924 0.51852 0.03986 1.036 0.082 1575.048 0.01734
0.19649 0.29457 0.37977 0.51924 0.04167 1.057 0.082 1575.085 0.01737
0.19676 0.29498 0.38029 0.51995 0.04348 1.104 0.084 1575.121 0.01739
0.19704 0.29539 0.38082 0.52067 0.04529 0.843 0.074 1575.158 0.01742
0.19731 0.29579 0.38134 0.52139 0.04711 0.844 0.074 1575.195 0.01744
0.19758 0.29620 0.38187 0.52211 0.04892 1.075 0.083 1575.232 0.01746
0.19785 0.29661 0.38240 0.52283 0.05073 0.892 0.076 1575.268 0.01749
0.19812 0.29702 0.38292 0.52355 0.05254 0.900 0.076 1575.305 0.01751
0.19840 0.29742 0.38345 0.52426 0.05436 0.774 0.071 1575.342 0.01753
0.19867 0.29783 0.38397 0.52498 0.05617 0.984 0.080 1575.378 0.01756
0.19894 0.29824 0.38450 0.52570 0.05798 0.770 0.071 1575.415 0.01758
0.19921 0.29865 0.38502 0.52642 0.05980 0.839 0.074 1575.452 0.01761
0.19948 0.29905 0.38555 0.52714 0.06161 0.841 0.074 1575.489 0.01763
0.19975 0.29946 0.38607 0.52786 0.06342 0.876 0.076 1575.525 0.01765
0.20003 0.29987 0.38660 0.52857 0.06524 0.906 0.077 1575.562 0.01768
0.20030 0.30028 0.38712 0.52929 0.06705 1.023 0.082 1575.599 0.01770
0.20057 0.30068 0.38765 0.53001 0.06886 0.921 0.078 1575.635 0.01772
0.20084 0.30109 0.38818 0.53073 0.07068 0.902 0.077 1575.672 0.01775
0.20111 0.30150 0.38870 0.53145 0.07249 0.862 0.075 1575.709 0.01777
0.20139 0.30191 0.38923 0.53217 0.07430 1.012 0.082 1575.746 0.01780
0.20166 0.30232 0.38975 0.53289 0.07612 0.842 0.074 1575.782 0.01782
0.20193 0.30272 0.39028 0.53360 0.07793 0.903 0.077 1575.819 0.01784
0.20220 0.30313 0.39080 0.53432 0.07974 0.948 0.079 1575.856 0.01787
0.20247 0.30354 0.39133 0.53504 0.08156 0.906 0.077 1575.892 0.01789
0.20275 0.30395 0.39185 0.53576 0.08337 0.925 0.078 1575.929 0.01791
0.20302 0.30435 0.39238 0.53648 0.08518 1.023 0.082 1575.966 0.01794
0.20329 0.30476 0.39291 0.53720 0.08700 0.960 0.080 1576.003 0.01796
0.20356 0.30517 0.39343 0.53792 0.08881 1.150 0.087 1576.039 0.01798
0.20383 0.30558 0.39396 0.53864 0.09063 0.995 0.081 1576.076 0.01801
0.20411 0.30598 0.39448 0.53935 0.09244 0.949 0.079 1576.113 0.01803
0.20438 0.30639 0.39501 0.54007 0.09426 0.815 0.074 1576.149 0.01806
0.20465 0.30680 0.39553 0.54079 0.09607 0.904 0.078 1576.186 0.01808
0.20492 0.30721 0.39606 0.54151 0.09788 0.878 0.077 1576.223 0.01810
0.20519 0.30762 0.39659 0.54223 0.09970 0.933 0.079 1576.260 0.01813
0.20547 0.30802 0.39711 0.54295 0.10151 0.954 0.080 1576.296 0.01815
0.20574 0.30843 0.39764 0.54367 0.10333 0.901 0.078 1576.333 0.01817
0.20601 0.30884 0.39816 0.54439 0.10514 0.916 0.078 1576.370 0.01820
0.20628 0.30925 0.39869 0.54511 0.10696 0.937 0.079 1576.406 0.01822
0.20655 0.30966 0.39922 0.54582 0.10877 0.924 0.079 1576.443 0.01825
0.20683 0.31006 0.39974 0.54654 0.11059 1.015 0.083 1576.480 0.01827
0.20710 0.31047 0.40027 0.54726 0.11240 0.961 0.080 1576.517 0.01829
0.20737 0.31088 0.40079 0.54798 0.11422 1.072 0.085 1576.553 0.01832
0.20764 0.31129 0.40132 0.54870 0.11603 1.087 0.086 1576.590 0.01834
0.20792 0.31170 0.40185 0.54942 0.11785 1.068 0.085 1576.627 0.01836
0.20819 0.31210 0.40237 0.55014 0.11966 0.938 0.080 1576.663 0.01839
0.20846 0.31251 0.40290 0.55086 0.12148 1.036 0.084 1576.700 0.01841
0.20873 0.31292 0.40342 0.55158 0.12329 0.954 0.080 1576.737 0.01844
0.20900 0.31333 0.40395 0.55230 0.12511 1.031 0.084 1576.774 0.01846
0.20928 0.31374 0.40448 0.55302 0.12692 1.025 0.083 1576.810 0.01848
0.20955 0.31414 0.40500 0.55374 0.12874 0.916 0.079 1576.847 0.01851
0.20982 0.31455 0.40553 0.55446 0.13055 0.896 0.078 1576.884 0.01853
0.21009 0.31496 0.40605 0.55517 0.13237 1.189 0.090 1576.920 0.01855
0.21037 0.31537 0.40658 0.55589 0.13418 1.008 0.083 1576.957 0.01858
0.21064 0.31578 0.40711 0.55661 0.13600 0.989 0.082 1576.994 0.01860
0.21091 0.31618 0.40763 0.55733 0.13782 1.088 0.086 1577.031 0.01863
0.21118 0.31659 0.40816 0.55805 0.13963 0.957 0.081 1577.067 0.01865
0.21145 0.31700 0.40869 0.55877 0.14145 1.000 0.083 1577.104 0.01867
0.21173 0.31741 0.40921 0.55949 0.14326 1.057 0.085 1577.141 0.01870
0.21200 0.31782 0.40974 0.56021 0.14508 1.009 0.083 1577.177 0.01872
0.21227 0.31823 0.41026 0.56093 0.14689 0.919 0.080 1577.214 0.01874
0.21254 0.31863 0.41079 0.56165 0.14871 1.019 0.084 1577.251 0.01877
0.21282 0.31904 0.41132 0.56237 0.15053 0.957 0.081 1577.287 0.01879
0.21309 0.31945 0.41184 0.56309 0.15234 0.986 0.083 1577.324 0.01881
0.21336 0.31986 0.41237 0.56381 0.15416 0.867 0.077 1577.361 0.01884
0.21363 0.32027 0.41290 0.56453 0.15598 0.995 0.083 1577.398 0.01886
0.21391 0.32068 0.41342 0.56525 0.15779 0.989 0.083 1577.434 0.01889
0.21418 0.32108 0.41395 0.56597 0.15961 0.871 0.078 1577.471 0.01891
0.21445 0.32149 0.41448 0.56669 0.16143 1.120 0.088 1577.508 0.01893
0.21472 0.32190 0.41500 0.56741 0.16324 0.887 0.079 1577.544 0.01896
0.21500 0.32231 0.41553 0.56813 0.16506 1.172 0.090 1577.581 0.01898
0.21527 0.32272 0.41605 0.56885 0.16688 1.073 0.086 1577.618 0.01900
0.21554 0.32313 0.41658 0.56957 0.16869 0.968 0.082 1577.655 0.01903
0.21581 0.32353 0.41711 0.57029 0.17051 1.175 0.091 1577.691 0.01905
0.21608 0.32394 0.41763 0.57101 0.17233 1.005 0.084 1577.728 0.01908
0.21636 0.32435 0.41816 0.57173 0.17414 1.049 0.086 1577.765 0.01910
0.21663 0.32476 0.41869 0.57245 0.17596 1.207 0.092 1577.801 0.01912
0.21690 0.32517 0.41921 0.57317 0.17778 0.930 0.081 1577.838 0.01915
0.21717 0.32558 0.41974 0.57389 0.17959 1.160 0.090 1577.875 0.01917
0.21745 0.32598 0.42027 0.57461 0.18141 1.125 0.089 1577.912 0.01919
0.21772 0.32639 0.42079 0.57533 0.18323 1.026 0.085 1577.948 0.01922
0.21799 0.32680 0.42132 0.57605 0.18505 1.078 0.087 1577.985 0.01924
0.21826 0.32721 0.42185 0.57677 0.18686 0.870 0.078 1578.022 0.01927
0.21854 0.32762 0.42237 0.57749 0.18868 0.814 0.076 1578.058 0.01929
0.21881 0.32803 0.42290 0.57821 0.19050 0.988 0.084 1578.095 0.01931
0.21908 0.32844 0.42343 0.57893 0.19232 1.075 0.087 1578.132 0.01934
0.21935 0.32884 0.42395 0.57965 0.19413 1.062 0.087 1578.169 0.01936
0.21963 0.32925 0.42448 0.58037 0.19595 1.057 0.087 1578.205 0.01938
0.21990 0.32966 0.42501 0.58109 0.19777 1.101 0.088 1578.242 0.01941
0.22017 0.33007 0.42553 0.58181 0.19959 1.059 0.087 1578.279 0.01943
0.22045 0.33048 0.42606 0.58253 0.20141 1.056 0.087 1578.315 0.01946
0.22072 0.33089 0.42659 0.58325 0.20322 1.081 0.088 1578.352 0.01948
0.22099 0.33130 0.42712 0.58397 0.20504 0.919 0.081 1578.389 0.01950
0.22126 0.33171 0.42764 0.58469 0.20686 0.961 0.083 1578.426 0.01953
0.22154 0.33211 0.42817 0.58541 0.20868 1.077 0.088 1578.462 0.01955
0.22181 0.33252 0.42870 0.58613 0.21050 1.151 0.091 1578.499 0.01957
0.22208 0.33293 0.42922 0.58685 0.21231 0.731 0.072 1578.536 0.01960
0.22235 0.33334 0.42975 0.58757 0.21413 0.888 0.080 1578.572 0.01962
0.22263 0.33375 0.43028 0.58829 0.21595 0.993 0.084 1578.609 0.01964
0.22290 0.33416 0.43080 0.58901 0.21777 1.141 0.091 1578.646 0.01967
0.22317 0.33457 0.43133 0.58973 0.21959 0.930 0.082 1578.683 0.01969
0.22344 0.33498 0.43186 0.59046 0.22141 0.950 0.083 1578.719 0.01972
0.22372 0.33538 0.43239 0.59118 0.22323 1.001 0.074 1578.756 0.01974
0.22399 0.33579 0.43291 0.59190 0.22504 1.019 0.074 1578.793 0.01976
0.22426 0.33620 0.43344 0.59262 0.22686 0.883 0.069 1578.829 0.01979
0.22454 0.33661 0.43397 0.59334 0.22868 1.001 0.074 1578.866 0.01981
0.22481 0.33702 0.43449 0.59406 0.23050 1.090 0.077 1578.903 0.01983
0.22508 0.33743 0.43502 0.59478 0.23232 1.073 0.077 1578.940 0.01986
0.22535 0.33784 0.43555 0.59550 0.23414 1.024 0.075 1578.976 0.01988
0.22563 0.33825 0.43608 0.59622 0.23596 1.032 0.075 1579.013 0.01991
0.22590 0.33866 0.43660 0.59694 0.23778 1.044 0.076 1579.050 0.01993
0.22617 0.33906 0.43713 0.59766 0.23960 0.957 0.072 1579.086 0.01995
0.22644 0.33947 0.43766 0.59838 0.24142 0.872 0.069 1579.123 0.01998
0.22672 0.33988 0.43818 0.59910 0.24324 0.909 0.071 1579.160 0.02000
0.22699 0.34029 0.43871 0.59983 0.24505 0.898 0.070 1579.197 0.02002
0.22726 0.34070 0.43924 0.60055 0.24687 1.171 0.080 1579.233 0.02005
0.22754 0.34111 0.43977 0.60127 0.24869 1.016 0.075 1579.270 0.02007
0.22781 0.34152 0.44029 0.60199 0.25051 1.047 0.076 1579.307 0.02010
0.22808 0.34193 0.44082 0.60271 0.25233 0.917 0.071 1579.343 0.02012
0.22835 0.34234 0.44135 0.60343 0.25415 1.012 0.075 1579.380 0.02014
0.22863 0.34275 0.44188 0.60415 0.25597 1.079 0.077 1579.417 0.02017
0.22890 0.34315 0.44240 0.60487 0.25779 1.029 0.076 1579.454 0.02019
0.22917 0.34356 0.44293 0.60559 0.25961 0.939 0.072 1579.490 0.02021
0.22945 0.34397 0.44346 0.60631 0.26143 0.950 0.073 1579.527 0.02024
0.22972 0.34438 0.44399 0.60704 0.26325 0.992 0.074 1579.564 0.02026
0.22999 0.34479 0.44451 0.60776 0.26507 1.068 0.077 1579.600 0.02029
0.23026 0.34520 0.44504 0.60848 0.26689 0.988 0.074 1579.637 0.02031
0.23054 0.34561 0.44557 0.60920 0.26871 0.923 0.072 1579.674 0.02033
0.23081 0.34602 0.44610 0.60992 0.27053 0.910 0.071 1579.711 0.02036
0.23108 0.34643 0.44662 0.61064 0.27235 0.937 0.072 1579.747 0.02038
0.23136 0.34684 0.44715 0.61136 0.27417 0.771 0.066 1579.784 0.02040
0.23163 0.34725 0.44768 0.61209 0.27599 0.960 0.073 1579.821 0.02043
0.23190 0.34766 0.44821 0.61281 0.27782 1.055 0.077 1579.857 0.02045
0.23218 0.34806 0.44873 0.61353 0.27964 0.901 0.071 1579.894 0.02047
0.23245 0.34847 0.44926 0.61425 0.28146 0.952 0.073 1579.931 0.02050
0.23272 0.34888 0.44979 0.61497 0.28328 0.968 0.074 1579.968 0.02052
0.23299 0.34929 0.45032 0.61569 0.28510 1.185 0.082 1580.004 0.02055
0.23327 0.34970 0.45084 0.61641 0.28692 0.931 0.073 1580.041 0.02057
0.23354 0.35011 0.45137 0.61714 0.28874 0.934 0.073 1580.078 0.02059
0.23381 0.35052 0.45190 0.61786 0.29056 1.069 0.078 1580.114 0.02062
0.23409 0.35093 0.45243 0.61858 0.29238 1.018 0.076 1580.151 0.02064
0.23436 0.35134 0.45296 0.61930 0.29420 1.032 0.077 1580.188 0.02066
0.23463 0.35175 0.45348 0.62002 0.29602 0.931 0.073 1580.225 0.02069
0.23491 0.35216 0.45401 0.62074 0.29785 0.834 0.069 1580.261 0.02071
0.23518 0.35257 0.45454 0.62146 0.29967 0.958 0.074 1580.298 0.02074
0.23545 0.35298 0.45507 0.62219 0.30149 1.081 0.078 1580.335 0.02076
0.23573 0.35339 0.45559 0.62291 0.30331 1.038 0.077 1580.371 0.02078
0.23600 0.35380 0.45612 0.62363 0.30513 0.944 0.073 1580.408 0.02081
0.23627 0.35421 0.45665 0.62435 0.30695 0.839 0.069 1580.445 0.02083
0.23654 0.35461 0.45718 0.62507 0.30877 0.949 0.074 1580.482 0.02085
0.23682 0.35502 0.45771 0.62580 0.31060 0.880 0.071 1580.518 0.02088
0.23709 0.35543 0.45823 0.62652 0.31242 0.995 0.076 1580.555 0.02090
0.23736 0.35584 0.45876 0.62724 0.31424 0.902 0.072 1580.592 0.02093
0.23764 0.35625 0.45929 0.62796 0.31606 1.062 0.078 1580.628 0.02095
0.23791 0.35666 0.45982 0.62868 0.31788 1.023 0.077 1580.665 0.02097
0.23818 0.35707 0.46035 0.62941 0.31971 1.047 0.078 1580.702 0.02100
0.23846 0.35748 0.46087 0.63013 0.32153 0.987 0.075 1580.739 0.02102
0.23873 0.35789 0.46140 0.63085 0.32335 0.930 0.073 1580.775 0.02104
0.23900 0.35830 0.46193 0.63157 0.32517 0.889 0.072 1580.812 0.02107
0.23928 0.35871 0.46246 0.63229 0.32699 0.995 0.076 1580.849 0.02109
0.23955 0.35912 0.46299 0.63302 0.32882 0.908 0.072 1580.885 0.02112
0.23982 0.35953 0.46351 0.63374 0.33064 1.022 0.077 1580.922 0.02114
0.24010 0.35994 0.46404 0.63446 0.33246 0.967 0.075 1580.959 0.02116
0.24037 0.36035 0.46457 0.63518 0.33428 0.862 0.071 1580.996 0.02119
0.24064 0.36076 0.46510 0.63590 0.33611 0.856 0.071 1581.032 0.02121
0.24092 0.36117 0.46563 0.63663 0.33793 0.919 0.073 1581.069 0.02123
0.24119 0.36158 0.46616 0.63735 0.33975 0.951 0.074 1581.106 0.02126
0.24146 0.36199 0.46668 0.63807 0.34158 0.925 0.073 1581.142 0.02128
0.24174 0.36240 0.46721 0.63879 0.34340 1.049 0.078 1581.179 0.02130
0.24201 0.36281 0.46774 0.63952 0.34522 1.007 0.077 1581.216 0.02133
0.24228 0.36322 0.46827 0.64024 0.34704 0.916 0.081 1581.253 0.02135
0.24256 0.36363 0.46880 0.64096 0.34887 0.994 0.093 1581.289 0.02138
0.24283 0.36404 0.46933 0.64168 0.35069 0.902 0.084 1581.326 0.02140
0.24310 0.36445 0.46985 0.64240 0.35251 1.011 0.089 1581.363 0.02142
0.24338 0.36486 0.47038 0.64313 0.35434 0.873 0.083 1581.399 0.02145
0.24365 0.36527 0.47091 0.64385 0.35616 0.968 0.087 1581.436 0.02147
0.24392 0.36568 0.47144 0.64457 0.35798 0.956 0.087 1581.473 0.02149
0.24420 0.36609 0.47197 0.64529 0.35981 1.039 0.090 1581.510 0.02152
0.24447 0.36650 0.47250 0.64602 0.36163 0.966 0.091 1581.546 0.02154
0.24474 0.36691 0.47302 0.64674 0.36345 0.911 0.085 1581.583 0.02157
0.24502 0.36732 0.47355 0.64746 0.36528 0.937 0.086 1581.620 0.02159
0.24529 0.36773 0.47408 0.64818 0.36710 1.272 0.100 1581.656 0.02161
0.24556 0.36814 0.47461 0.64891 0.36892 0.914 0.085 1581.693 0.02164
0.24584 0.36855 0.47514 0.64963 0.37075 1.028 0.090 1581.730 0.02166
0.24611 0.36896 0.47567 0.65035 0.37257 0.950 0.087 1581.767 0.02168
0.24638 0.36937 0.47620 0.65108 0.37440 0.892 0.084 1581.803 0.02171
0.24666 0.36978 0.47672 0.65180 0.37622 0.904 0.085 1581.840 0.02173
0.24693 0.37019 0.47725 0.65252 0.37804 0.978 0.088 1581.877 0.02176
0.24721 0.37060 0.47778 0.65324 0.37987 0.855 0.082 1581.913 0.02178
0.24748 0.37101 0.47831 0.65397 0.38169 0.986 0.089 1581.950 0.02180
0.24775 0.37142 0.47884 0.65469 0.38352 0.892 0.089 1581.987 0.02183
0.24803 0.37183 0.47937 0.65541 0.38534 0.912 0.100 1582.024 0.02185
0.24830 0.37224 0.47990 0.65613 0.38716 1.000 0.123 1582.060 0.02187
0.24857 0.37265 0.48043 0.65686 0.38899 0.831 0.121 1582.097 0.02190
0.24885 0.37306 0.48095 0.65758 0.39081 0.966 0.129 1582.134 0.02192
0.24912 0.37347 0.48148 0.65830 0.39264 1.088 0.128 1582.170 0.02195
0.24939 0.37388 0.48201 0.65903 0.39446 1.016 0.125 1582.207 0.02197
0.24967 0.37429 0.48254 0.65975 0.39629 0.944 0.087 1582.244 0.02199
0.24994 0.37470 0.48307 0.66047 0.39811 1.084 0.093 1582.281 0.02202
0.25021 0.37511 0.48360 0.66120 0.39994 1.161 0.097 1582.317 0.02204
0.25049 0.37552 0.48413 0.66192 0.40176 0.939 0.087 1582.354 0.02206
0.25076 0.37593 0.48466 0.66264 0.40359 1.021 0.091 1582.391 0.02209
0.25104 0.37634 0.48518 0.66336 0.40541 0.946 0.087 1582.427 0.02211
0.25131 0.37675 0.48571 0.66409 0.40724 1.023 0.091 1582.464 0.02213
0.25158 0.37716 0.48624 0.66481 0.40906 0.956 0.088 1582.501 0.02216
0.25186 0.37757 0.48677 0.66553 0.41089 0.889 0.085 1582.538 0.02218
0.25213 0.37798 0.48730 0.66626 0.41271 0.901 0.085 1582.574 0.02221
0.25240 0.37839 0.48783 0.66698 0.41454 1.013 0.091 1582.611 0.02223
0.25268 0.37880 0.48836 0.66770 0.41636 0.962 0.088 1582.648 0.02225
0.25295 0.37921 0.48889 0.66843 0.41819 1.196 0.099 1582.684 0.02228
0.25322 0.37962 0.48942 0.66915 0.42001 0.879 0.089 1582.721 0.02230
0.25350 0.38003 0.48995 0.66987 0.42184 1.187 0.098 1582.758 0.02232
0.25377 0.38044 0.49047 0.67060 0.42367 1.082 0.094 1582.794 0.02235
0.25405 0.38085 0.49100 0.67132 0.42549 1.076 0.094 1582.831 0.02237
0.25432 0.38126 0.49153 0.67204 0.42732 1.060 0.093 1582.868 0.02240
0.25459 0.38167 0.49206 0.67277 0.42914 1.115 0.095 1582.905 0.02242
0.25487 0.38208 0.49259 0.67349 0.43097 0.840 0.088 1582.941 0.02244
0.25514 0.38249 0.49312 0.67421 0.43279 0.987 0.090 1582.978 0.02247
0.25541 0.38290 0.49365 0.67494 0.43462 0.956 0.089 1583.015 0.02249
0.25569 0.38331 0.49418 0.67566 0.43645 0.941 0.088 1583.051 0.02251
0.25596 0.38372 0.49471 0.67639 0.43827 0.687 0.085 1583.088 0.02254
0.25624 0.38414 0.49524 0.67711 0.44010 1.153 0.097 1583.125 0.02256
0.25651 0.38455 0.49577 0.67783 0.44192 1.055 0.093 1583.162 0.02259
0.25678 0.38496 0.49630 0.67856 0.44375 0.955 0.093 1583.198 0.02261
0.25706 0.38537 0.49682 0.67928 0.44558 0.946 0.088 1583.235 0.02263
0.25733 0.38578 0.49735 0.68000 0.44740 0.982 0.090 1583.272 0.02266
0.25761 0.38619 0.49788 0.68073 0.44923 1.035 0.092 1583.308 0.02268
0.25788 0.38660 0.49841 0.68145 0.45106 1.038 0.093 1583.345 0.02270
0.25815 0.38701 0.49894 0.68217 0.45288 0.902 0.091 1583.382 0.02273
0.25843 0.38742 0.49947 0.68290 0.45471 1.006 0.091 1583.419 0.02275
0.25870 0.38783 0.50000 0.68362 0.45654 1.050 0.093 1583.455 0.02278
0.25898 0.38824 0.50053 0.68435 0.45836 0.810 0.082 1583.492 0.02280
0.25925 0.38865 0.50106 0.68507 0.46019 0.949 0.089 1583.529 0.02282
0.25952 0.38906 0.50159 0.68579 0.46202 0.846 0.089 1583.565 0.02285
0.25980 0.38947 0.50212 0.68652 0.46384 0.855 0.084 1583.602 0.02287
0.26007 0.38988 0.50265 0.68724 0.46567 0.917 0.087 1583.639 0.02289
0.26034 0.39029 0.50318 0.68797 0.46750 0.941 0.093 1583.676 0.02292
0.26062 0.39071 0.50371 0.68869 0.46933 1.002 0.091 1583.712 0.02294
0.26089 0.39112 0.50424 0.68941 0.47115 1.047 0.093 1583.749 0.02296
0.26117 0.39153 0.50477 0.69014 0.47298 1.013 0.092 1583.786 0.02299
0.26144 0.39194 0.50530 0.69086 0.47481 0.963 0.090 1583.822 0.02301
0.26171 0.39235 0.50583 0.69159 0.47663 0.966 0.090 1583.859 0.02304
0.26199 0.39276 0.50636 0.69231 0.47846 1.154 0.098 1583.896 0.02306
0.26226 0.39317 0.50688 0.69303 0.48029 1.021 0.093 1583.933 0.02308
0.26254 0.39358 0.50741 0.69376 0.48212 0.916 0.092 1583.969 0.02311
0.26281 0.39399 0.50794 0.69448 0.48395 1.088 0.096 1584.006 0.02313
0.26309 0.39440 0.50847 0.69521 0.48577 0.961 0.090 1584.043 0.02315
0.26336 0.39481 0.50900 0.69593 0.48760 0.703 0.087 1584.079 0.02318
0.26363 0.39522 0.50953 0.69666 0.48943 0.918 0.088 1584.116 0.02320
0.26391 0.39564 0.51006 0.69738 0.49126 0.938 0.089 1584.153 0.02323
0.26418 0.39605 0.51059 0.69810 0.49308 1.051 0.094 1584.190 0.02325
0.26446 0.39646 0.51112 0.69883 0.49491 0.930 0.089 1584.226 0.02327
0.26473 0.39687 0.51165 0.69955 0.49674 0.906 0.092 1584.263 0.02330
0.26500 0.39728 0.51218 0.70028 0.49857 0.967 0.090 1584.300 0.02332
0.26528 0.39769 0.51271 0.70100 0.50040 0.879 0.086 1584.336 0.02334
0.26555 0.39810 0.51324 0.70173 0.50223 0.935 0.089 1584.373 0.02337
0.26583 0.39851 0.51377 0.70245 0.50405 1.074 0.095 1584.410 0.02339
0.26610 0.39892 0.51430 0.70318 0.50588 1.014 0.093 1584.447 0.02342
0.26637 0.39933 0.51483 0.70390 0.50771 0.867 0.096 1584.483 0.02344
0.26665 0.39975 0.51536 0.70462 0.50954 0.904 0.093 1584.520 0.02346
0.26692 0.40016 0.51589 0.70535 0.51137 1.060 0.095 1584.557 0.02349
0.26720 0.40057 0.51642 0.70607 0.51320 0.877 0.092 1584.593 0.02351
0.26747 0.40098 0.51695 0.70680 0.51503 1.037 0.099 1584.630 0.02353
0.26775 0.40139 0.51748 0.70752 0.51685 0.871 0.091 1584.667 0.02356
0.26802 0.40180 0.51801 0.70825 0.51868 0.810 0.088 1584.704 0.02358
0.26829 0.40221 0.51854 0.70897 0.52051 0.908 0.088 1584.740 0.02361
0.26857 0.40262 0.51907 0.70970 0.52234 0.951 0.090 1584.777 0.02363
