x y z dist_scaled dist_frac flux_norm sig_norm wavelength redshift
-0.15802 0.30253 0.36878 0.50249 0.00000 0.956 0.042 1574.228 0.01682
-0.15825 0.30296 0.36931 0.50320 0.00181 0.946 0.042 1574.265 0.01684
-0.15847 0.30339 0.36983 0.50392 0.00362 1.052 0.044 1574.301 0.01686
-0.15870 0.30383 0.37036 0.50464 0.00543 1.029 0.044 1574.338 0.01689
-0.15892 0.30426 0.37089 0.50536 0.00724 1.066 0.045 1574.375 0.01691
-0.15915 0.30469 0.37141 0.50607 0.00906 1.110 0.045 1574.412 0.01693
-0.15937 0.30512 0.37194 0.50679 0.01087 0.970 0.042 1574.448 0.01696
-0.15960 0.30555 0.37247 0.50751 0.01268 1.039 0.044 1574.485 0.01698
-0.15983 0.30599 0.37299 0.50823 0.01449 1.027 0.044 1574.522 0.01700
-0.16005 0.30642 0.37352 0.50895 0.01630 1.003 0.043 1574.558 0.01703
-0.16028 0.30685 0.37405 0.50966 0.01811 1.047 0.044 1574.595 0.01705
-0.16050 0.30728 0.37457 0.51038 0.01992 1.094 0.045 1574.632 0.01708
-0.16073 0.30772 0.37510 0.51110 0.02174 1.053 0.044 1574.669 0.01710
-0.16095 0.30815 0.37563 0.51182 0.02355 1.010 0.043 1574.705 0.01712
-0.16118 0.30858 0.37615 0.51253 0.02536 1.078 0.044 1574.742 0.01715
-0.16141 0.30901 0.37668 0.51325 0.02717 1.104 0.045 1574.779 0.01717
-0.16163 0.30944 0.37721 0.51397 0.02898 1.048 0.044 1574.815 0.01719
-0.16186 0.30988 0.37773 0.51469 0.03080 0.960 0.042 1574.852 0.01722
-0.16208 0.31031 0.37826 0.51541 0.03261 1.071 0.044 1574.889 0.01724
-0.16231 0.31074 0.37879 0.51612 0.03442 1.049 0.044 1574.926 0.01727
-0.16254 0.31117 0.37931 0.51684 0.03623 1.103 0.045 1574.962 0.01729
-0.16276 0.31161 0.37984 0.51756 0.03804 1.053 0.044 1574.999 0.01731
-0.16299 0.31204 0.38037 0.51828 0.03986 1.015 0.043 1575.036 0.01734
-0.16321 0.31247 0.38090 0.51900 0.04167 0.964 0.042 1575.072 0.01736
-0.16344 0.31290 0.38142 0.51972 0.04348 0.948 0.041 1575.109 0.01738
-0.16366 0.31333 0.38195 0.52043 0.04529 1.033 0.043 1575.146 0.01741
-0.16389 0.31377 0.38248 0.52115 0.04711 0.998 0.042 1575.183 0.01743
-0.16412 0.31420 0.38300 0.52187 0.04892 1.008 0.043 1575.219 0.01746
-0.16434 0.31463 0.38353 0.52259 0.05073 1.071 0.044 1575.256 0.01748
-0.16457 0.31506 0.38406 0.52331 0.05254 1.058 0.044 1575.293 0.01750
-0.16479 0.31550 0.38459 0.52402 0.05436 0.965 0.042 1575.329 0.01753
-0.16502 0.31593 0.38511 0.52474 0.05617 0.989 0.042 1575.366 0.01755
-0.16525 0.31636 0.38564 0.52546 0.05798 0.982 0.042 1575.403 0.01757
-0.16547 0.31679 0.38617 0.52618 0.05980 1.029 0.043 1575.440 0.01760
-0.16570 0.31723 0.38669 0.52690 0.06161 1.043 0.043 1575.476 0.01762
-0.16592 0.31766 0.38722 0.52762 0.06342 1.016 0.042 1575.513 0.01765
-0.16615 0.31809 0.38775 0.52833 0.06524 1.098 0.044 1575.550 0.01767
-0.16638 0.31852 0.38828 0.52905 0.06705 1.012 0.042 1575.586 0.01769
-0.16660 0.31896 0.38880 0.52977 0.06886 0.935 0.041 1575.623 0.01772
-0.16683 0.31939 0.38933 0.53049 0.07068 1.009 0.042 1575.660 0.01774
-0.16705 0.31982 0.38986 0.53121 0.07249 0.992 0.042 1575.697 0.01776
-0.16728 0.32026 0.39039 0.53193 0.07430 0.971 0.041 1575.733 0.01779
-0.16751 0.32069 0.39091 0.53265 0.07612 1.035 0.043 1575.770 0.01781
-0.16773 0.32112 0.39144 0.53336 0.07793 0.992 0.042 1575.807 0.01783
-0.16796 0.32155 0.39197 0.53408 0.07974 1.034 0.043 1575.843 0.01786
-0.16818 0.32199 0.39250 0.53480 0.08156 1.009 0.042 1575.880 0.01788
-0.16841 0.32242 0.39302 0.53552 0.08337 1.055 0.043 1575.917 0.01791
-0.16864 0.32285 0.39355 0.53624 0.08518 0.989 0.042 1575.954 0.01793
-0.16886 0.32328 0.39408 0.53696 0.08700 0.979 0.041 1575.990 0.01795
-0.16909 0.32372 0.39461 0.53768 0.08881 1.031 0.042 1576.027 0.01798
-0.16931 0.32415 0.39513 0.53840 0.09063 1.013 0.042 1576.064 0.01800
-0.16954 0.32458 0.39566 0.53911 0.09244 0.988 0.041 1576.100 0.01802
-0.16977 0.32502 0.39619 0.53983 0.09426 1.029 0.042 1576.137 0.01805
-0.16999 0.32545 0.39672 0.54055 0.09607 0.962 0.041 1576.174 0.01807
-0.17022 0.32588 0.39724 0.54127 0.09788 0.986 0.041 1576.211 0.01810
-0.17044 0.32631 0.39777 0.54199 0.09970 0.983 0.041 1576.247 0.01812
-0.17067 0.32675 0.39830 0.54271 0.10151 1.038 0.042 1576.284 0.01814
-0.17090 0.32718 0.39883 0.54343 0.10333 0.970 0.041 1576.321 0.01817
-0.17112 0.32761 0.39935 0.54415 0.10514 1.074 0.043 1576.357 0.01819
-0.17135 0.32805 0.39988 0.54487 0.10696 1.019 0.042 1576.394 0.01821
-0.17157 0.32848 0.40041 0.54559 0.10877 1.081 0.043 1576.431 0.01824
-0.17180 0.32891 0.40094 0.54630 0.11059 1.004 0.041 1576.468 0.01826
-0.17203 0.32934 0.40146 0.54702 0.11240 1.001 0.041 1576.504 0.01829
-0.17225 0.32978 0.40199 0.54774 0.11422 0.921 0.040 1576.541 0.01831
-0.17248 0.33021 0.40252 0.54846 0.11603 0.884 0.039 1576.578 0.01833
-0.17271 0.33064 0.40305 0.54918 0.11785 0.990 0.041 1576.614 0.01836
-0.17293 0.33108 0.40358 0.54990 0.11966 1.004 0.041 1576.651 0.01838
-0.17316 0.33151 0.40410 0.55062 0.12148 0.954 0.040 1576.688 0.01840
-0.17338 0.33194 0.40463 0.55134 0.12329 0.985 0.041 1576.725 0.01843
-0.17361 0.33237 0.40516 0.55206 0.12511 0.951 0.040 1576.761 0.01845
-0.17384 0.33281 0.40569 0.55278 0.12692 0.996 0.041 1576.798 0.01848
-0.17406 0.33324 0.40622 0.55350 0.12874 1.007 0.041 1576.835 0.01850
-0.17429 0.33367 0.40674 0.55422 0.13055 1.046 0.042 1576.871 0.01852
-0.17451 0.33411 0.40727 0.55494 0.13237 0.991 0.041 1576.908 0.01855
-0.17474 0.33454 0.40780 0.55565 0.13418 0.950 0.040 1576.945 0.01857
-0.17497 0.33497 0.40833 0.55637 0.13600 1.007 0.041 1576.982 0.01859
-0.17519 0.33541 0.40886 0.55709 0.13782 0.933 0.040 1577.018 0.01862
-0.17542 0.33584 0.40938 0.55781 0.13963 0.995 0.041 1577.055 0.01864
-0.17565 0.33627 0.40991 0.55853 0.14145 0.965 0.040 1577.092 0.01866
-0.17587 0.33671 0.41044 0.55925 0.14326 1.020 0.041 1577.128 0.01869
-0.17610 0.33714 0.41097 0.55997 0.14508 0.942 0.040 1577.165 0.01871
-0.17632 0.33757 0.41150 0.56069 0.14689 0.947 0.040 1577.202 0.01874
-0.17655 0.33801 0.41202 0.56141 0.14871 1.007 0.041 1577.239 0.01876
-0.17678 0.33844 0.41255 0.56213 0.15053 0.987 0.040 1577.275 0.01878
-0.17700 0.33887 0.41308 0.56285 0.15234 1.039 0.041 1577.312 0.01881
-0.17723 0.33931 0.41361 0.56357 0.15416 1.059 0.042 1577.349 0.01883
-0.17746 0.33974 0.41414 0.56429 0.15598 0.976 0.040 1577.385 0.01885
-0.17768 0.34017 0.41466 0.56501 0.15779 0.972 0.040 1577.422 0.01888
-0.17791 0.34061 0.41519 0.56573 0.15961 0.992 0.040 1577.459 0.01890
-0.17814 0.34104 0.41572 0.56645 0.16143 0.981 0.040 1577.496 0.01893
-0.17836 0.34147 0.41625 0.56717 0.16324 0.865 0.038 1577.532 0.01895
-0.17859 0.34191 0.41678 0.56789 0.16506 0.922 0.039 1577.569 0.01897
-0.17881 0.34234 0.41731 0.56861 0.16688 0.963 0.040 1577.606 0.01900
-0.17904 0.34277 0.41783 0.56933 0.16869 0.952 0.039 1577.642 0.01902
-0.17927 0.34321 0.41836 0.57005 0.17051 0.982 0.040 1577.679 0.01904
-0.17949 0.34364 0.41889 0.57077 0.17233 1.014 0.041 1577.716 0.01907
-0.17972 0.34407 0.41942 0.57149 0.17414 0.978 0.040 1577.753 0.01909
-0.17995 0.34451 0.41995 0.57221 0.17596 1.018 0.041 1577.789 0.01912
-0.18017 0.34494 0.42048 0.57293 0.17778 1.000 0.040 1577.826 0.01914
-0.18040 0.34537 0.42100 0.57365 0.17959 0.986 0.040 1577.863 0.01916
-0.18063 0.34581 0.42153 0.57437 0.18141 1.024 0.041 1577.899 0.01919
-0.18085 0.34624 0.42206 0.57509 0.18323 0.948 0.039 1577.936 0.01921
-0.18108 0.34667 0.42259 0.57581 0.18505 1.026 0.041 1577.973 0.01923
-0.18131 0.34711 0.42312 0.57653 0.18686 1.014 0.040 1578.010 0.01926
-0.18153 0.34754 0.42365 0.57725 0.18868 0.941 0.039 1578.046 0.01928
-0.18176 0.34797 0.42418 0.57797 0.19050 0.958 0.039 1578.083 0.01931
-0.18198 0.34841 0.42470 0.57869 0.19232 0.989 0.040 1578.120 0.01933
-0.18221 0.34884 0.42523 0.57941 0.19413 1.005 0.040 1578.156 0.01935
-0.18244 0.34928 0.42576 0.58013 0.19595 1.040 0.041 1578.193 0.01938
-0.18266 0.34971 0.42629 0.58085 0.19777 0.960 0.039 1578.230 0.01940
-0.18289 0.35014 0.42682 0.58157 0.19959 1.013 0.040 1578.267 0.01942
-0.18312 0.35058 0.42735 0.58229 0.20141 1.044 0.041 1578.303 0.01945
-0.18334 0.35101 0.42788 0.58301 0.20322 1.017 0.040 1578.340 0.01947
-0.18357 0.35144 0.42840 0.58373 0.20504 1.004 0.040 1578.377 0.01949
-0.18380 0.35188 0.42893 0.58445 0.20686 1.041 0.041 1578.413 0.01952
-0.18402 0.35231 0.42946 0.58517 0.20868 1.044 0.041 1578.450 0.01954
-0.18425 0.35275 0.42999 0.58589 0.21050 1.014 0.040 1578.487 0.01957
-0.18448 0.35318 0.43052 0.58661 0.21231 1.038 0.041 1578.524 0.01959
-0.18470 0.35361 0.43105 0.58733 0.21413 0.914 0.038 1578.560 0.01961
-0.18493 0.35405 0.43158 0.58805 0.21595 0.977 0.039 1578.597 0.01964
-0.18516 0.35448 0.43211 0.58877 0.21777 0.940 0.038 1578.634 0.01966
-0.18538 0.35491 0.43263 0.58949 0.21959 0.985 0.039 1578.670 0.01968
-0.18561 0.35535 0.43316 0.59022 0.22141 0.910 0.038 1578.707 0.01971
-0.18584 0.35578 0.43369 0.59094 0.22323 0.983 0.039 1578.744 0.01973
-0.18606 0.35622 0.43422 0.59166 0.22504 1.061 0.041 1578.781 0.01976
-0.18629 0.35665 0.43475 0.59238 0.22686 1.027 0.040 1578.817 0.01978
-0.18652 0.35708 0.43528 0.59310 0.22868 0.951 0.039 1578.854 0.01980
-0.18674 0.35752 0.43581 0.59382 0.23050 0.954 0.039 1578.891 0.01983
-0.18697 0.35795 0.43634 0.59454 0.23232 0.928 0.038 1578.927 0.01985
-0.18720 0.35839 0.43687 0.59526 0.23414 0.980 0.039 1578.964 0.01987
-0.18742 0.35882 0.43740 0.59598 0.23596 0.926 0.038 1579.001 0.01990
-0.18765 0.35925 0.43792 0.59670 0.23778 0.972 0.039 1579.038 0.01992
-0.18788 0.35969 0.43845 0.59742 0.23960 0.991 0.039 1579.074 0.01995
-0.18810 0.36012 0.43898 0.59814 0.24142 1.013 0.040 1579.111 0.01997
-0.18833 0.36056 0.43951 0.59886 0.24324 0.930 0.038 1579.148 0.01999
-0.18856 0.36099 0.44004 0.59959 0.24505 0.970 0.039 1579.184 0.02002
-0.18878 0.36142 0.44057 0.60031 0.24687 1.013 0.040 1579.221 0.02004
-0.18901 0.36186 0.44110 0.60103 0.24869 0.921 0.038 1579.258 0.02006
-0.18924 0.36229 0.44163 0.60175 0.25051 1.034 0.040 1579.294 0.02009
-0.18946 0.36273 0.44216 0.60247 0.25233 0.910 0.037 1579.331 0.02011
-0.18969 0.36316 0.44269 0.60319 0.25415 0.988 0.039 1579.368 0.02014
-0.18992 0.36359 0.44322 0.60391 0.25597 0.974 0.039 1579.405 0.02016
-0.19014 0.36403 0.44374 0.60463 0.25779 1.017 0.039 1579.441 0.02018
-0.19037 0.36446 0.44427 0.60535 0.25961 0.974 0.039 1579.478 0.02021
-0.19060 0.36490 0.44480 0.60607 0.26143 0.919 0.037 1579.515 0.02023
-0.19082 0.36533 0.44533 0.60680 0.26325 0.981 0.039 1579.551 0.02025
-0.19105 0.36576 0.44586 0.60752 0.26507 0.970 0.038 1579.588 0.02028
-0.19128 0.36620 0.44639 0.60824 0.26689 0.971 0.038 1579.625 0.02030
-0.19150 0.36663 0.44692 0.60896 0.26871 0.956 0.038 1579.662 0.02032
-0.19173 0.36707 0.44745 0.60968 0.27053 1.000 0.039 1579.698 0.02035
-0.19196 0.36750 0.44798 0.61040 0.27235 0.974 0.038 1579.735 0.02037
-0.19218 0.36794 0.44851 0.61112 0.27417 0.950 0.038 1579.772 0.02040
-0.19241 0.36837 0.44904 0.61184 0.27599 1.001 0.039 1579.808 0.02042
-0.19264 0.36880 0.44957 0.61257 0.27782 0.979 0.038 1579.845 0.02044
-0.19287 0.36924 0.45010 0.61329 0.27964 0.947 0.038 1579.882 0.02047
-0.19309 0.36967 0.45063 0.61401 0.28146 0.942 0.038 1579.919 0.02049
-0.19332 0.37011 0.45116 0.61473 0.28328 1.012 0.039 1579.955 0.02051
-0.19355 0.37054 0.45168 0.61545 0.28510 0.951 0.038 1579.992 0.02054
-0.19377 0.37098 0.45221 0.61617 0.28692 0.930 0.037 1580.029 0.02056
-0.19400 0.37141 0.45274 0.61689 0.28874 0.911 0.037 1580.065 0.02059
-0.19423 0.37185 0.45327 0.61762 0.29056 1.003 0.039 1580.102 0.02061
-0.19445 0.37228 0.45380 0.61834 0.29238 0.998 0.039 1580.139 0.02063
-0.19468 0.37271 0.45433 0.61906 0.29420 0.974 0.038 1580.176 0.02066
-0.19491 0.37315 0.45486 0.61978 0.29602 0.985 0.038 1580.212 0.02068
-0.19513 0.37358 0.45539 0.62050 0.29785 0.999 0.039 1580.249 0.02070
-0.19536 0.37402 0.45592 0.62122 0.29967 0.923 0.037 1580.286 0.02073
-0.19559 0.37445 0.45645 0.62195 0.30149 0.955 0.038 1580.322 0.02075
-0.19582 0.37489 0.45698 0.62267 0.30331 0.928 0.037 1580.359 0.02078
-0.19604 0.37532 0.45751 0.62339 0.30513 0.925 0.037 1580.396 0.02080
-0.19627 0.37576 0.45804 0.62411 0.30695 0.873 0.036 1580.433 0.02082
-0.19650 0.37619 0.45857 0.62483 0.30877 0.919 0.037 1580.469 0.02085
-0.19672 0.37663 0.45910 0.62555 0.31060 0.907 0.037 1580.506 0.02087
-0.19695 0.37706 0.45963 0.62628 0.31242 0.877 0.036 1580.543 0.02089
-0.19718 0.37749 0.46016 0.62700 0.31424 0.927 0.037 1580.579 0.02092
-0.19740 0.37793 0.46069 0.62772 0.31606 0.990 0.038 1580.616 0.02094
-0.19763 0.37836 0.46122 0.62844 0.31788 0.888 0.036 1580.653 0.02096
-0.19786 0.37880 0.46175 0.62916 0.31971 0.891 0.036 1580.690 0.02099
-0.19809 0.37923 0.46228 0.62989 0.32153 0.874 0.036 1580.726 0.02101
-0.19831 0.37967 0.46281 0.63061 0.32335 0.960 0.038 1580.763 0.02104
-0.19854 0.38010 0.46334 0.63133 0.32517 0.859 0.035 1580.800 0.02106
-0.19877 0.38054 0.46387 0.63205 0.32699 0.932 0.037 1580.836 0.02108
-0.19899 0.38097 0.46440 0.63277 0.32882 0.926 0.037 1580.873 0.02111
-0.19922 0.38141 0.46493 0.63350 0.33064 0.914 0.037 1580.910 0.02113
-0.19945 0.38184 0.46546 0.63422 0.33246 0.928 0.038 1580.947 0.02115
-0.19967 0.38228 0.46599 0.63494 0.33428 0.895 0.039 1580.983 0.02118
-0.19990 0.38271 0.46652 0.63566 0.33611 0.812 0.038 1581.020 0.02120
-0.20013 0.38315 0.46705 0.63639 0.33793 0.918 0.040 1581.057 0.02123
-0.20036 0.38358 0.46758 0.63711 0.33975 0.850 0.038 1581.093 0.02125
-0.20058 0.38402 0.46811 0.63783 0.34158 0.856 0.038 1581.130 0.02127
-0.20081 0.38445 0.46864 0.63855 0.34340 0.909 0.040 1581.167 0.02130
-0.20104 0.38488 0.46917 0.63927 0.34522 0.922 0.040 1581.204 0.02132
-0.20126 0.38532 0.46970 0.64000 0.34704 0.980 0.041 1581.240 0.02134
-0.20149 0.38575 0.47023 0.64072 0.34887 0.864 0.039 1581.277 0.02137
-0.20172 0.38619 0.47076 0.64144 0.35069 0.959 0.045 1581.314 0.02139
-0.20195 0.38662 0.47129 0.64216 0.35251 0.899 0.044 1581.350 0.02142
-0.20217 0.38706 0.47182 0.64289 0.35434 0.896 0.044 1581.387 0.02144
-0.20240 0.38749 0.47235 0.64361 0.35616 0.923 0.045 1581.424 0.02146
-0.20263 0.38793 0.47288 0.64433 0.35798 0.906 0.044 1581.461 0.02149
-0.20285 0.38836 0.47341 0.64505 0.35981 0.998 0.046 1581.497 0.02151
-0.20308 0.38880 0.47394 0.64578 0.36163 0.911 0.044 1581.534 0.02153
-0.20331 0.38923 0.47447 0.64650 0.36345 0.894 0.044 1581.571 0.02156
-0.20354 0.38967 0.47500 0.64722 0.36528 0.951 0.045 1581.607 0.02158
-0.20376 0.39010 0.47553 0.64794 0.36710 0.954 0.045 1581.644 0.02161
-0.20399 0.39054 0.47606 0.64867 0.36892 0.957 0.045 1581.681 0.02163
-0.20422 0.39097 0.47659 0.64939 0.37075 0.899 0.044 1581.718 0.02165
-0.20445 0.39141 0.47712 0.65011 0.37257 1.010 0.046 1581.754 0.02168
-0.20467 0.39184 0.47765 0.65083 0.37440 0.869 0.043 1581.791 0.02170
-0.20490 0.39228 0.47818 0.65156 0.37622 0.945 0.045 1581.828 0.02172
-0.20513 0.39272 0.47871 0.65228 0.37804 0.895 0.044 1581.864 0.02175
-0.20535 0.39315 0.47924 0.65300 0.37987 0.986 0.046 1581.901 0.02177
-0.20558 0.39359 0.47977 0.65373 0.38169 0.963 0.045 1581.938 0.02179
-0.20581 0.39402 0.48030 0.65445 0.38352 0.879 0.043 1581.975 0.02182
-0.20604 0.39446 0.48084 0.65517 0.38534 0.898 0.044 1582.011 0.02184
-0.20626 0.39489 0.48137 0.65589 0.38716 0.853 0.042 1582.048 0.02187
-0.20649 0.39533 0.48190 0.65662 0.38899 0.878 0.043 1582.085 0.02189
-0.20672 0.39576 0.48243 0.65734 0.39081 1.005 0.046 1582.121 0.02191
-0.20695 0.39620 0.48296 0.65806 0.39264 1.013 0.046 1582.158 0.02194
-0.20717 0.39663 0.48349 0.65879 0.39446 0.923 0.044 1582.195 0.02196
-0.20740 0.39707 0.48402 0.65951 0.39629 0.896 0.043 1582.232 0.02198
-0.20763 0.39750 0.48455 0.66023 0.39811 0.940 0.044 1582.268 0.02201
-0.20786 0.39794 0.48508 0.66095 0.39994 0.972 0.045 1582.305 0.02203
-0.20808 0.39837 0.48561 0.66168 0.40176 0.868 0.043 1582.342 0.02206
-0.20831 0.39881 0.48614 0.66240 0.40359 0.915 0.044 1582.378 0.02208
-0.20854 0.39924 0.48667 0.66312 0.40541 0.892 0.043 1582.415 0.02210
-0.20876 0.39968 0.48720 0.66385 0.40724 0.878 0.043 1582.452 0.02213
-0.20899 0.40011 0.48773 0.66457 0.40906 0.948 0.044 1582.489 0.02215
-0.20922 0.40055 0.48826 0.66529 0.41089 0.961 0.045 1582.525 0.02217
-0.20945 0.40099 0.48879 0.66602 0.41271 0.989 0.045 1582.562 0.02220
-0.20967 0.40142 0.48933 0.66674 0.41454 0.969 0.045 1582.599 0.02222
-0.20990 0.40186 0.48986 0.66746 0.41636 0.936 0.044 1582.635 0.02225
-0.21013 0.40229 0.49039 0.66819 0.41819 0.983 0.045 1582.672 0.02227
-0.21036 0.40273 0.49092 0.66891 0.42001 0.912 0.043 1582.709 0.02229
-0.21058 0.40316 0.49145 0.66963 0.42184 0.984 0.045 1582.746 0.02232
-0.21081 0.40360 0.49198 0.67036 0.42367 0.918 0.044 1582.782 0.02234
-0.21104 0.40403 0.49251 0.67108 0.42549 0.878 0.043 1582.819 0.02236
-0.21127 0.40447 0.49304 0.67180 0.42732 0.951 0.044 1582.856 0.02239
-0.21149 0.40491 0.49357 0.67253 0.42914 0.879 0.043 1582.892 0.02241
-0.21172 0.40534 0.49410 0.67325 0.43097 0.898 0.043 1582.929 0.02244
-0.21195 0.40578 0.49463 0.67397 0.43279 0.944 0.044 1582.966 0.02246
-0.21218 0.40621 0.49517 0.67470 0.43462 0.964 0.044 1583.003 0.02248
-0.21240 0.40665 0.49570 0.67542 0.43645 0.924 0.044 1583.039 0.02251
-0.21263 0.40708 0.49623 0.67614 0.43827 0.901 0.043 1583.076 0.02253
-0.21286 0.40752 0.49676 0.67687 0.44010 0.927 0.044 1583.113 0.02255
-0.21309 0.40795 0.49729 0.67759 0.44192 0.979 0.045 1583.149 0.02258
-0.21331 0.40839 0.49782 0.67832 0.44375 0.865 0.042 1583.186 0.02260
-0.21354 0.40883 0.49835 0.67904 0.44558 0.937 0.044 1583.223 0.02262
-0.21377 0.40926 0.49888 0.67976 0.44740 0.942 0.044 1583.260 0.02265
-0.21400 0.40970 0.49941 0.68049 0.44923 0.900 0.043 1583.296 0.02267
-0.21423 0.41013 0.49995 0.68121 0.45106 0.984 0.045 1583.333 0.02270
-0.21445 0.41057 0.50048 0.68193 0.45288 0.942 0.044 1583.370 0.02272
-0.21468 0.41100 0.50101 0.68266 0.45471 0.972 0.044 1583.406 0.02274
-0.21491 0.41144 0.50154 0.68338 0.45654 1.002 0.045 1583.443 0.02277
-0.21514 0.41188 0.50207 0.68411 0.45836 0.928 0.043 1583.480 0.02279
-0.21536 0.41231 0.50260 0.68483 0.46019 0.936 0.043 1583.517 0.02281
-0.21559 0.41275 0.50313 0.68555 0.46202 0.883 0.042 1583.553 0.02284
-0.21582 0.41318 0.50366 0.68628 0.46384 0.925 0.043 1583.590 0.02286
-0.21605 0.41362 0.50420 0.68700 0.46567 0.858 0.042 1583.627 0.02289
-0.21627 0.41406 0.50473 0.68772 0.46750 0.878 0.042 1583.663 0.02291
-0.21650 0.41449 0.50526 0.68845 0.46933 0.920 0.043 1583.700 0.02293
-0.21673 0.41493 0.50579 0.68917 0.47115 0.921 0.043 1583.737 0.02296
-0.21696 0.41536 0.50632 0.68990 0.47298 0.956 0.044 1583.774 0.02298
-0.21718 0.41580 0.50685 0.69062 0.47481 0.965 0.044 1583.810 0.02300
-0.21741 0.41623 0.50738 0.69134 0.47663 0.902 0.042 1583.847 0.02303
-0.21764 0.41667 0.50791 0.69207 0.47846 0.934 0.043 1583.884 0.02305
-0.21787 0.41711 0.50845 0.69279 0.48029 0.898 0.042 1583.920 0.02308
-0.21810 0.41754 0.50898 0.69352 0.48212 0.930 0.043 1583.957 0.02310
-0.21832 0.41798 0.50951 0.69424 0.48395 0.946 0.043 1583.994 0.02312
-0.21855 0.41841 0.51004 0.69497 0.48577 0.939 0.043 1584.031 0.02315
-0.21878 0.41885 0.51057 0.69569 0.48760 0.921 0.043 1584.067 0.02317
-0.21901 0.41929 0.51110 0.69641 0.48943 0.912 0.043 1584.104 0.02319
-0.21923 0.41972 0.51164 0.69714 0.49126 0.885 0.042 1584.141 0.02322
-0.21946 0.42016 0.51217 0.69786 0.49308 0.882 0.042 1584.177 0.02324
-0.21969 0.42060 0.51270 0.69859 0.49491 0.911 0.042 1584.214 0.02327
-0.21992 0.42103 0.51323 0.69931 0.49674 0.927 0.043 1584.251 0.02329
-0.22015 0.42147 0.51376 0.70004 0.49857 0.899 0.042 1584.288 0.02331
-0.22037 0.42190 0.51429 0.70076 0.50040 0.963 0.044 1584.324 0.02334
-0.22060 0.42234 0.51483 0.70148 0.50223 0.987 0.044 1584.361 0.02336
-0.22083 0.42278 0.51536 0.70221 0.50405 0.937 0.043 1584.398 0.02338
-0.22106 0.42321 0.51589 0.70293 0.50588 0.940 0.043 1584.434 0.02341
-0.22128 0.42365 0.51642 0.70366 0.50771 0.909 0.042 1584.471 0.02343
-0.22151 0.42408 0.51695 0.70438 0.50954 0.914 0.042 1584.508 0.02345
-0.22174 0.42452 0.51748 0.70511 0.51137 0.830 0.040 1584.544 0.02348
-0.22197 0.42496 0.51802 0.70583 0.51320 0.983 0.044 1584.581 0.02350
-0.22220 0.42539 0.51855 0.70656 0.51503 0.935 0.043 1584.618 0.02353
