x y z dist_scaled dist_frac flux_norm sig_norm wavelength redshift
-0.15051 0.15557 0.45344 0.50246 0.00000 0.807 0.070 1574.227 0.01681
-0.15072 0.15579 0.45409 0.50318 0.00181 0.962 0.076 1574.263 0.01684
-0.15094 0.15601 0.45474 0.50389 0.00362 1.037 0.079 1574.300 0.01686
-0.15115 0.15623 0.45539 0.50461 0.00543 0.865 0.073 1574.337 0.01689
-0.15137 0.15645 0.45603 0.50533 0.00724 0.884 0.073 1574.374 0.01691
-0.15158 0.15668 0.45668 0.50605 0.00906 1.009 0.078 1574.410 0.01693
-0.15180 0.15690 0.45733 0.50677 0.01087 1.072 0.081 1574.447 0.01696
-0.15201 0.15712 0.45798 0.50748 0.01268 0.905 0.074 1574.484 0.01698
-0.15223 0.15734 0.45863 0.50820 0.01449 0.981 0.077 1574.520 0.01700
-0.15245 0.15757 0.45927 0.50892 0.01630 0.907 0.075 1574.557 0.01703
-0.15266 0.15779 0.45992 0.50964 0.01811 1.007 0.079 1574.594 0.01705
-0.15288 0.15801 0.46057 0.51035 0.01992 1.046 0.080 1574.631 0.01708
-0.15309 0.15823 0.46122 0.51107 0.02174 1.015 0.079 1574.667 0.01710
-0.15331 0.15846 0.46186 0.51179 0.02355 1.003 0.079 1574.704 0.01712
-0.15352 0.15868 0.46251 0.51251 0.02536 1.129 0.083 1574.741 0.01715
-0.15374 0.15890 0.46316 0.51323 0.02717 0.992 0.078 1574.777 0.01717
-0.15395 0.15912 0.46381 0.51394 0.02898 1.000 0.079 1574.814 0.01719
-0.15417 0.15934 0.46446 0.51466 0.03080 0.976 0.078 1574.851 0.01722
-0.15438 0.15957 0.46511 0.51538 0.03261 0.996 0.078 1574.888 0.01724
-0.15460 0.15979 0.46575 0.51610 0.03442 0.977 0.078 1574.924 0.01726
-0.15481 0.16001 0.46640 0.51682 0.03623 0.903 0.075 1574.961 0.01729
-0.15503 0.16023 0.46705 0.51754 0.03804 0.929 0.076 1574.998 0.01731
-0.15524 0.16046 0.46770 0.51825 0.03986 0.975 0.078 1575.034 0.01734
-0.15546 0.16068 0.46835 0.51897 0.04167 1.008 0.079 1575.071 0.01736
-0.15567 0.16090 0.46899 0.51969 0.04348 0.972 0.078 1575.108 0.01738
-0.15589 0.16112 0.46964 0.52041 0.04529 1.057 0.081 1575.145 0.01741
-0.15610 0.16135 0.47029 0.52113 0.04711 1.022 0.080 1575.181 0.01743
-0.15632 0.16157 0.47094 0.52185 0.04892 1.053 0.081 1575.218 0.01745
-0.15653 0.16179 0.47159 0.52256 0.05073 0.990 0.079 1575.255 0.01748
-0.15675 0.16201 0.47224 0.52328 0.05254 1.001 0.079 1575.292 0.01750
-0.15696 0.16224 0.47288 0.52400 0.05436 0.922 0.076 1575.328 0.01753
-0.15718 0.16246 0.47353 0.52472 0.05617 0.970 0.078 1575.365 0.01755
-0.15739 0.16268 0.47418 0.52544 0.05798 1.031 0.080 1575.402 0.01757
-0.15761 0.16290 0.47483 0.52616 0.05980 1.177 0.086 1575.438 0.01760
-0.15782 0.16313 0.47548 0.52687 0.06161 0.911 0.076 1575.475 0.01762
-0.15804 0.16335 0.47613 0.52759 0.06342 0.902 0.075 1575.512 0.01764
-0.15825 0.16357 0.47677 0.52831 0.06524 1.048 0.081 1575.549 0.01767
-0.15847 0.16379 0.47742 0.52903 0.06705 1.243 0.089 1575.585 0.01769
-0.15868 0.16402 0.47807 0.52975 0.06886 0.989 0.079 1575.622 0.01772
-0.15890 0.16424 0.47872 0.53047 0.07068 1.031 0.081 1575.659 0.01774
-0.15912 0.16446 0.47937 0.53119 0.07249 1.017 0.080 1575.695 0.01776
-0.15933 0.16468 0.48002 0.53191 0.07430 0.857 0.074 1575.732 0.01779
-0.15955 0.16491 0.48067 0.53262 0.07612 0.946 0.077 1575.769 0.01781
-0.15976 0.16513 0.48131 0.53334 0.07793 0.926 0.077 1575.806 0.01783
-0.15998 0.16535 0.48196 0.53406 0.07974 0.893 0.075 1575.842 0.01786
-0.16019 0.16557 0.48261 0.53478 0.08156 0.775 0.074 1575.879 0.01788
-0.16041 0.16580 0.48326 0.53550 0.08337 0.704 0.067 1575.916 0.01791
-0.16062 0.16602 0.48391 0.53622 0.08518 0.583 0.069 1575.952 0.01793
-0.16084 0.16624 0.48456 0.53694 0.08700 0.402 0.062 1575.989 0.01795
-0.16105 0.16646 0.48521 0.53766 0.08881 0.323 0.057 1576.026 0.01798
-0.16127 0.16669 0.48586 0.53837 0.09063 0.191 0.047 1576.063 0.01800
-0.16148 0.16691 0.48650 0.53909 0.09244 0.190 0.047 1576.099 0.01802
-0.16170 0.16713 0.48715 0.53981 0.09426 0.125 0.041 1576.136 0.01805
-0.16191 0.16735 0.48780 0.54053 0.09607 0.085 0.036 1576.173 0.01807
-0.16213 0.16758 0.48845 0.54125 0.09788 0.085 0.037 1576.210 0.01809
-0.16235 0.16780 0.48910 0.54197 0.09970 0.039 0.030 1576.246 0.01812
-0.16256 0.16802 0.48975 0.54269 0.10151 0.071 0.035 1576.283 0.01814
-0.16278 0.16824 0.49040 0.54341 0.10333 0.117 0.041 1576.320 0.01817
-0.16299 0.16847 0.49105 0.54413 0.10514 0.190 0.048 1576.356 0.01819
-0.16321 0.16869 0.49170 0.54485 0.10696 0.159 0.045 1576.393 0.01821
-0.16342 0.16891 0.49235 0.54557 0.10877 0.219 0.050 1576.430 0.01824
-0.16364 0.16914 0.49299 0.54628 0.11059 0.285 0.055 1576.467 0.01826
-0.16385 0.16936 0.49364 0.54700 0.11240 0.191 0.047 1576.503 0.01828
-0.16407 0.16958 0.49429 0.54772 0.11422 0.245 0.052 1576.540 0.01831
-0.16428 0.16980 0.49494 0.54844 0.11603 0.339 0.059 1576.577 0.01833
-0.16450 0.17003 0.49559 0.54916 0.11785 0.254 0.053 1576.613 0.01836
-0.16472 0.17025 0.49624 0.54988 0.11966 0.182 0.047 1576.650 0.01838
-0.16493 0.17047 0.49689 0.55060 0.12148 0.075 0.034 1576.687 0.01840
-0.16515 0.17069 0.49754 0.55132 0.12329 0.067 0.034 1576.724 0.01843
-0.16536 0.17092 0.49819 0.55204 0.12511 -0.009 0.023 1576.760 0.01845
-0.16558 0.17114 0.49884 0.55276 0.12692 0.030 0.029 1576.797 0.01847
-0.16579 0.17136 0.49949 0.55348 0.12874 0.043 0.029 1576.834 0.01850
-0.16601 0.17159 0.50014 0.55420 0.13055 0.021 0.026 1576.871 0.01852
-0.16622 0.17181 0.50078 0.55492 0.13237 0.048 0.031 1576.907 0.01855
-0.16644 0.17203 0.50143 0.55564 0.13418 0.015 0.024 1576.944 0.01857
-0.16665 0.17225 0.50208 0.55636 0.13600 0.014 0.026 1576.981 0.01859
-0.16687 0.17248 0.50273 0.55708 0.13782 0.060 0.032 1577.017 0.01862
-0.16709 0.17270 0.50338 0.55780 0.13963 0.053 0.031 1577.054 0.01864
-0.16730 0.17292 0.50403 0.55852 0.14145 0.146 0.043 1577.091 0.01866
-0.16752 0.17314 0.50468 0.55924 0.14326 0.207 0.049 1577.128 0.01869
-0.16773 0.17337 0.50533 0.55995 0.14508 0.380 0.063 1577.164 0.01871
-0.16795 0.17359 0.50598 0.56067 0.14689 0.608 0.067 1577.201 0.01874
-0.16816 0.17381 0.50663 0.56139 0.14871 0.723 0.069 1577.238 0.01876
-0.16838 0.17404 0.50728 0.56211 0.15053 0.878 0.076 1577.274 0.01878
-0.16860 0.17426 0.50793 0.56283 0.15234 0.952 0.079 1577.311 0.01881
-0.16881 0.17448 0.50858 0.56355 0.15416 1.034 0.083 1577.348 0.01883
-0.16903 0.17470 0.50923 0.56427 0.15598 0.907 0.077 1577.385 0.01885
-0.16924 0.17493 0.50988 0.56499 0.15779 0.935 0.079 1577.421 0.01888
-0.16946 0.17515 0.51053 0.56571 0.15961 1.286 0.092 1577.458 0.01890
-0.16967 0.17537 0.51118 0.56643 0.16143 1.031 0.083 1577.495 0.01893
-0.16989 0.17560 0.51183 0.56715 0.16324 1.160 0.088 1577.531 0.01895
-0.17010 0.17582 0.51248 0.56787 0.16506 0.905 0.078 1577.568 0.01897
-0.17032 0.17604 0.51313 0.56859 0.16688 1.000 0.082 1577.605 0.01900
-0.17054 0.17626 0.51378 0.56931 0.16869 0.899 0.077 1577.642 0.01902
-0.17075 0.17649 0.51443 0.57003 0.17051 0.866 0.076 1577.678 0.01904
-0.17097 0.17671 0.51508 0.57075 0.17233 0.901 0.078 1577.715 0.01907
-0.17118 0.17693 0.51573 0.57147 0.17414 0.963 0.080 1577.752 0.01909
-0.17140 0.17716 0.51638 0.57219 0.17596 1.060 0.084 1577.789 0.01911
-0.17161 0.17738 0.51703 0.57291 0.17778 1.129 0.087 1577.825 0.01914
-0.17183 0.17760 0.51767 0.57363 0.17959 1.009 0.082 1577.862 0.01916
-0.17205 0.17783 0.51832 0.57435 0.18141 0.956 0.080 1577.899 0.01919
-0.17226 0.17805 0.51897 0.57507 0.18323 1.074 0.085 1577.935 0.01921
-0.17248 0.17827 0.51962 0.57579 0.18505 0.958 0.080 1577.972 0.01923
-0.17269 0.17849 0.52027 0.57651 0.18686 1.102 0.086 1578.009 0.01926
-0.17291 0.17872 0.52092 0.57723 0.18868 1.140 0.090 1578.046 0.01928
-0.17312 0.17894 0.52157 0.57796 0.19050 0.940 0.086 1578.082 0.01930
-0.17334 0.17916 0.52222 0.57868 0.19232 1.227 0.098 1578.119 0.01933
-0.17356 0.17939 0.52288 0.57940 0.19413 0.885 0.084 1578.156 0.01935
-0.17377 0.17961 0.52353 0.58012 0.19595 1.035 0.090 1578.192 0.01938
-0.17399 0.17983 0.52418 0.58084 0.19777 1.029 0.090 1578.229 0.01940
-0.17420 0.18006 0.52483 0.58156 0.19959 1.044 0.091 1578.266 0.01942
-0.17442 0.18028 0.52548 0.58228 0.20141 1.019 0.090 1578.303 0.01945
-0.17464 0.18050 0.52613 0.58300 0.20322 1.076 0.092 1578.339 0.01947
-0.17485 0.18072 0.52678 0.58372 0.20504 0.850 0.087 1578.376 0.01949
-0.17507 0.18095 0.52743 0.58444 0.20686 1.125 0.095 1578.413 0.01952
-0.17528 0.18117 0.52808 0.58516 0.20868 0.992 0.089 1578.449 0.01954
-0.17550 0.18139 0.52873 0.58588 0.21050 1.127 0.095 1578.486 0.01957
-0.17571 0.18162 0.52938 0.58660 0.21231 1.137 0.095 1578.523 0.01959
-0.17593 0.18184 0.53003 0.58732 0.21413 0.974 0.088 1578.560 0.01961
-0.17615 0.18206 0.53068 0.58804 0.21595 1.109 0.094 1578.596 0.01964
-0.17636 0.18229 0.53133 0.58876 0.21777 0.997 0.089 1578.633 0.01966
-0.17658 0.18251 0.53198 0.58948 0.21959 1.083 0.093 1578.670 0.01968
-0.17679 0.18273 0.53263 0.59020 0.22141 0.947 0.087 1578.707 0.01971
-0.17701 0.18296 0.53328 0.59093 0.22323 0.876 0.088 1578.743 0.01973
-0.17723 0.18318 0.53393 0.59165 0.22504 1.097 0.094 1578.780 0.01976
-0.17744 0.18340 0.53458 0.59237 0.22686 0.979 0.089 1578.817 0.01978
-0.17766 0.18363 0.53523 0.59309 0.22868 0.939 0.087 1578.853 0.01980
-0.17787 0.18385 0.53588 0.59381 0.23050 0.981 0.093 1578.890 0.01983
-0.17809 0.18407 0.53653 0.59453 0.23232 1.171 0.097 1578.927 0.01985
-0.17831 0.18430 0.53718 0.59525 0.23414 1.084 0.094 1578.964 0.01987
-0.17852 0.18452 0.53783 0.59597 0.23596 0.949 0.088 1579.000 0.01990
-0.17874 0.18474 0.53848 0.59669 0.23778 1.032 0.091 1579.037 0.01992
-0.17895 0.18496 0.53913 0.59741 0.23960 1.182 0.098 1579.074 0.01994
-0.17917 0.18519 0.53979 0.59813 0.24142 1.109 0.095 1579.110 0.01997
-0.17939 0.18541 0.54044 0.59886 0.24323 0.982 0.089 1579.147 0.01999
-0.17960 0.18563 0.54109 0.59958 0.24505 1.108 0.095 1579.184 0.02002
-0.17982 0.18586 0.54174 0.60030 0.24687 0.903 0.086 1579.221 0.02004
-0.18003 0.18608 0.54239 0.60102 0.24869 1.153 0.097 1579.257 0.02006
-0.18025 0.18630 0.54304 0.60174 0.25051 1.177 0.098 1579.294 0.02009
-0.18047 0.18653 0.54369 0.60246 0.25233 1.201 0.099 1579.331 0.02011
-0.18068 0.18675 0.54434 0.60318 0.25415 1.063 0.093 1579.368 0.02013
-0.18090 0.18697 0.54499 0.60390 0.25597 0.985 0.094 1579.404 0.02016
-0.18111 0.18720 0.54564 0.60462 0.25779 1.062 0.093 1579.441 0.02018
-0.18133 0.18742 0.54629 0.60535 0.25961 1.131 0.096 1579.478 0.02021
-0.18155 0.18764 0.54694 0.60607 0.26143 1.149 0.097 1579.514 0.02023
-0.18176 0.18787 0.54760 0.60679 0.26325 1.140 0.097 1579.551 0.02025
-0.18198 0.18809 0.54825 0.60751 0.26507 1.024 0.092 1579.588 0.02028
-0.18219 0.18831 0.54890 0.60823 0.26689 1.227 0.100 1579.625 0.02030
-0.18241 0.18854 0.54955 0.60895 0.26871 1.201 0.099 1579.661 0.02032
-0.18263 0.18876 0.55020 0.60967 0.27053 1.325 0.104 1579.698 0.02035
-0.18284 0.18898 0.55085 0.61040 0.27235 0.881 0.085 1579.735 0.02037
-0.18306 0.18921 0.55150 0.61112 0.27417 1.079 0.094 1579.771 0.02040
-0.18327 0.18943 0.55215 0.61184 0.27599 1.015 0.091 1579.808 0.02042
-0.18349 0.18965 0.55280 0.61256 0.27782 1.082 0.094 1579.845 0.02044
-0.18371 0.18988 0.55345 0.61328 0.27964 1.041 0.093 1579.882 0.02047
-0.18392 0.19010 0.55411 0.61400 0.28146 0.826 0.088 1579.918 0.02049
-0.18414 0.19032 0.55476 0.61472 0.28328 0.893 0.091 1579.955 0.02051
-0.18435 0.19055 0.55541 0.61545 0.28510 0.907 0.087 1579.992 0.02054
-0.18457 0.19077 0.55606 0.61617 0.28692 1.035 0.093 1580.028 0.02056
-0.18479 0.19099 0.55671 0.61689 0.28874 1.029 0.097 1580.065 0.02059
-0.18500 0.19122 0.55736 0.61761 0.29056 1.165 0.098 1580.102 0.02061
-0.18522 0.19144 0.55801 0.61833 0.29238 1.097 0.095 1580.139 0.02063
-0.18544 0.19167 0.55866 0.61905 0.29420 1.050 0.093 1580.175 0.02066
-0.18565 0.19189 0.55932 0.61978 0.29602 1.129 0.097 1580.212 0.02068
-0.18587 0.19211 0.55997 0.62050 0.29785 0.976 0.090 1580.249 0.02070
-0.18608 0.19234 0.56062 0.62122 0.29967 0.960 0.094 1580.286 0.02073
-0.18630 0.19256 0.56127 0.62194 0.30149 1.012 0.092 1580.322 0.02075
-0.18652 0.19278 0.56192 0.62266 0.30331 0.970 0.090 1580.359 0.02078
-0.18673 0.19301 0.56257 0.62339 0.30513 1.022 0.092 1580.396 0.02080
-0.18695 0.19323 0.56322 0.62411 0.30695 0.920 0.092 1580.432 0.02082
-0.18717 0.19345 0.56388 0.62483 0.30877 0.930 0.093 1580.469 0.02085
-0.18738 0.19368 0.56453 0.62555 0.31060 1.033 0.093 1580.506 0.02087
-0.18760 0.19390 0.56518 0.62627 0.31242 1.178 0.099 1580.543 0.02089
-0.18781 0.19412 0.56583 0.62700 0.31424 0.924 0.088 1580.579 0.02092
-0.18803 0.19435 0.56648 0.62772 0.31606 0.984 0.091 1580.616 0.02094
-0.18825 0.19457 0.56713 0.62844 0.31788 0.908 0.087 1580.653 0.02096
-0.18846 0.19479 0.56779 0.62916 0.31971 0.858 0.090 1580.689 0.02099
-0.18868 0.19502 0.56844 0.62988 0.32153 1.097 0.096 1580.726 0.02101
-0.18890 0.19524 0.56909 0.63061 0.32335 1.158 0.099 1580.763 0.02104
-0.18911 0.19547 0.56974 0.63133 0.32517 0.868 0.090 1580.800 0.02106
-0.18933 0.19569 0.57039 0.63205 0.32699 0.834 0.089 1580.836 0.02108
-0.18954 0.19591 0.57104 0.63277 0.32882 0.955 0.090 1580.873 0.02111
-0.18976 0.19614 0.57170 0.63349 0.33064 0.878 0.091 1580.910 0.02113
-0.18998 0.19636 0.57235 0.63422 0.33246 0.948 0.090 1580.946 0.02115
-0.19019 0.19658 0.57300 0.63494 0.33428 0.949 0.090 1580.983 0.02118
-0.19041 0.19681 0.57365 0.63566 0.33611 0.571 0.079 1581.020 0.02120
-0.19063 0.19703 0.57430 0.63638 0.33793 0.554 0.078 1581.057 0.02123
-0.19084 0.19725 0.57496 0.63711 0.33975 0.254 0.063 1581.093 0.02125
-0.19106 0.19748 0.57561 0.63783 0.34157 0.159 0.054 1581.130 0.02127
-0.19128 0.19770 0.57626 0.63855 0.34340 0.151 0.053 1581.167 0.02130
-0.19149 0.19793 0.57691 0.63927 0.34522 0.064 0.042 1581.204 0.02132
-0.19171 0.19815 0.57756 0.64000 0.34704 0.056 0.040 1581.240 0.02134
-0.19193 0.19837 0.57822 0.64072 0.34887 0.082 0.044 1581.277 0.02137
-0.19214 0.19860 0.57887 0.64144 0.35069 0.066 0.043 1581.314 0.02139
-0.19236 0.19882 0.57952 0.64216 0.35251 0.159 0.061 1581.350 0.02142
-0.19257 0.19904 0.58017 0.64289 0.35434 0.081 0.051 1581.387 0.02144
-0.19279 0.19927 0.58082 0.64361 0.35616 0.151 0.060 1581.424 0.02146
-0.19301 0.19949 0.58148 0.64433 0.35798 0.137 0.059 1581.461 0.02149
-0.19322 0.19971 0.58213 0.64505 0.35981 0.177 0.064 1581.497 0.02151
-0.19344 0.19994 0.58278 0.64578 0.36163 0.143 0.060 1581.534 0.02153
-0.19366 0.20016 0.58343 0.64650 0.36345 0.321 0.080 1581.571 0.02156
-0.19387 0.20039 0.58408 0.64722 0.36528 0.228 0.071 1581.607 0.02158
-0.19409 0.20061 0.58474 0.64794 0.36710 0.427 0.089 1581.644 0.02161
-0.19431 0.20083 0.58539 0.64867 0.36892 0.665 0.105 1581.681 0.02163
-0.19452 0.20106 0.58604 0.64939 0.37075 0.625 0.103 1581.718 0.02165
-0.19474 0.20128 0.58669 0.65011 0.37257 0.737 0.109 1581.754 0.02168
-0.19496 0.20151 0.58735 0.65084 0.37440 0.807 0.114 1581.791 0.02170
-0.19517 0.20173 0.58800 0.65156 0.37622 0.882 0.110 1581.828 0.02172
-0.19539 0.20195 0.58865 0.65228 0.37804 0.846 0.117 1581.865 0.02175
-0.19561 0.20218 0.58930 0.65300 0.37987 0.889 0.112 1581.901 0.02177
-0.19582 0.20240 0.58996 0.65373 0.38169 0.846 0.108 1581.938 0.02180
-0.19604 0.20262 0.59061 0.65445 0.38352 0.813 0.115 1581.975 0.02182
-0.19626 0.20285 0.59126 0.65517 0.38534 0.903 0.113 1582.011 0.02184
-0.19647 0.20307 0.59191 0.65590 0.38716 1.126 0.118 1582.048 0.02187
-0.19669 0.20330 0.59257 0.65662 0.38899 1.004 0.110 1582.085 0.02189
-0.19690 0.20352 0.59322 0.65734 0.39081 0.949 0.108 1582.122 0.02191
-0.19712 0.20374 0.59387 0.65807 0.39264 1.006 0.111 1582.158 0.02194
-0.19734 0.20397 0.59452 0.65879 0.39446 0.862 0.110 1582.195 0.02196
-0.19755 0.20419 0.59518 0.65951 0.39629 1.264 0.118 1582.232 0.02198
-0.19777 0.20442 0.59583 0.66023 0.39811 0.763 0.111 1582.268 0.02201
-0.19799 0.20464 0.59648 0.66096 0.39994 1.042 0.114 1582.305 0.02203
-0.19820 0.20486 0.59713 0.66168 0.40176 0.987 0.117 1582.342 0.02206
-0.19842 0.20509 0.59779 0.66240 0.40359 1.055 0.108 1582.379 0.02208
-0.19864 0.20531 0.59844 0.66313 0.40541 0.944 0.116 1582.415 0.02210
-0.19885 0.20553 0.59909 0.66385 0.40724 0.943 0.115 1582.452 0.02213
-0.19907 0.20576 0.59974 0.66457 0.40906 1.024 0.106 1582.489 0.02215
-0.19929 0.20598 0.60040 0.66530 0.41089 1.013 0.113 1582.525 0.02217
-0.19950 0.20621 0.60105 0.66602 0.41271 1.014 0.112 1582.562 0.02220
-0.19972 0.20643 0.60170 0.66674 0.41454 0.912 0.113 1582.599 0.02222
-0.19994 0.20665 0.60236 0.66747 0.41636 1.069 0.115 1582.636 0.02225
-0.20015 0.20688 0.60301 0.66819 0.41819 0.856 0.118 1582.672 0.02227
-0.20037 0.20710 0.60366 0.66891 0.42001 1.195 0.115 1582.709 0.02229
-0.20059 0.20733 0.60431 0.66964 0.42184 0.993 0.111 1582.746 0.02232
-0.20080 0.20755 0.60497 0.67036 0.42366 0.892 0.105 1582.783 0.02234
-0.20102 0.20777 0.60562 0.67109 0.42549 1.063 0.115 1582.819 0.02236
-0.20124 0.20800 0.60627 0.67181 0.42732 0.826 0.116 1582.856 0.02239
-0.20145 0.20822 0.60693 0.67253 0.42914 0.884 0.112 1582.893 0.02241
-0.20167 0.20845 0.60758 0.67326 0.43097 1.143 0.113 1582.929 0.02244
-0.20189 0.20867 0.60823 0.67398 0.43279 0.896 0.114 1582.966 0.02246
-0.20211 0.20889 0.60888 0.67470 0.43462 1.137 0.119 1583.003 0.02248
-0.20232 0.20912 0.60954 0.67543 0.43645 0.788 0.114 1583.040 0.02251
-0.20254 0.20934 0.61019 0.67615 0.43827 0.959 0.117 1583.076 0.02253
-0.20276 0.20957 0.61084 0.67687 0.44010 0.730 0.111 1583.113 0.02255
-0.20297 0.20979 0.61150 0.67760 0.44192 0.840 0.110 1583.150 0.02258
-0.20319 0.21002 0.61215 0.67832 0.44375 0.593 0.102 1583.186 0.02260
-0.20341 0.21024 0.61280 0.67905 0.44558 0.406 0.088 1583.223 0.02263
-0.20362 0.21046 0.61346 0.67977 0.44740 0.553 0.100 1583.260 0.02265
-0.20384 0.21069 0.61411 0.68049 0.44923 0.457 0.093 1583.297 0.02267
-0.20406 0.21091 0.61476 0.68122 0.45106 0.221 0.071 1583.333 0.02270
-0.20427 0.21114 0.61542 0.68194 0.45288 0.070 0.051 1583.370 0.02272
-0.20449 0.21136 0.61607 0.68267 0.45471 0.090 0.055 1583.407 0.02274
-0.20471 0.21158 0.61672 0.68339 0.45654 0.051 0.047 1583.443 0.02277
-0.20492 0.21181 0.61738 0.68411 0.45836 0.030 0.042 1583.480 0.02279
-0.20514 0.21203 0.61803 0.68484 0.46019 0.068 0.051 1583.517 0.02281
-0.20536 0.21226 0.61868 0.68556 0.46202 0.044 0.047 1583.554 0.02284
-0.20557 0.21248 0.61934 0.68629 0.46384 0.009 0.042 1583.590 0.02286
-0.20579 0.21270 0.61999 0.68701 0.46567 -0.014 0.036 1583.627 0.02289
-0.20601 0.21293 0.62064 0.68773 0.46750 -0.002 0.042 1583.664 0.02291
-0.20623 0.21315 0.62130 0.68846 0.46933 -0.014 0.036 1583.701 0.02293
-0.20644 0.21338 0.62195 0.68918 0.47115 -0.037 0.036 1583.737 0.02296
-0.20666 0.21360 0.62260 0.68991 0.47298 -0.002 0.042 1583.774 0.02298
-0.20688 0.21383 0.62326 0.69063 0.47481 0.044 0.049 1583.811 0.02300
-0.20709 0.21405 0.62391 0.69135 0.47663 0.044 0.047 1583.847 0.02303
-0.20731 0.21427 0.62457 0.69208 0.47846 0.010 0.042 1583.884 0.02305
-0.20753 0.21450 0.62522 0.69280 0.48029 -0.013 0.036 1583.921 0.02308
-0.20774 0.21472 0.62587 0.69353 0.48212 0.045 0.049 1583.958 0.02310
-0.20796 0.21495 0.62653 0.69425 0.48394 -0.024 0.036 1583.994 0.02312
-0.20818 0.21517 0.62718 0.69498 0.48577 0.023 0.042 1584.031 0.02315
-0.20839 0.21540 0.62783 0.69570 0.48760 0.046 0.047 1584.068 0.02317
-0.20861 0.21562 0.62849 0.69642 0.48943 -0.035 0.036 1584.104 0.02319
-0.20883 0.21584 0.62914 0.69715 0.49126 0.093 0.056 1584.141 0.02322
-0.20905 0.21607 0.62979 0.69787 0.49308 0.036 0.047 1584.178 0.02324
-0.20926 0.21629 0.63045 0.69860 0.49491 0.024 0.042 1584.215 0.02327
-0.20948 0.21652 0.63110 0.69932 0.49674 0.271 0.077 1584.251 0.02329
-0.20970 0.21674 0.63176 0.70005 0.49857 0.167 0.067 1584.288 0.02331
-0.20991 0.21697 0.63241 0.70077 0.50040 0.304 0.081 1584.325 0.02334
-0.21013 0.21719 0.63306 0.70150 0.50222 0.305 0.081 1584.362 0.02336
-0.21035 0.21741 0.63372 0.70222 0.50405 0.468 0.095 1584.398 0.02338
-0.21057 0.21764 0.63437 0.70295 0.50588 0.460 0.095 1584.435 0.02341
-0.21078 0.21786 0.63503 0.70367 0.50771 0.770 0.115 1584.472 0.02343
-0.21100 0.21809 0.63568 0.70439 0.50954 0.930 0.125 1584.508 0.02346
-0.21122 0.21831 0.63633 0.70512 0.51137 0.851 0.113 1584.545 0.02348
-0.21143 0.21854 0.63699 0.70584 0.51320 0.846 0.113 1584.582 0.02350
-0.21165 0.21876 0.63764 0.70657 0.51502 0.879 0.122 1584.619 0.02353
