x y z dist_scaled dist_frac flux_norm wavelength redshift
0.06842 0.15049 0.47477 0.50273 0.00000 1.028 1574.240 0.01682
0.06852 0.15070 0.47545 0.50344 0.00181 0.958 1574.277 0.01685
0.06862 0.15091 0.47612 0.50416 0.00362 1.010 1574.314 0.01687
0.06872 0.15113 0.47680 0.50488 0.00543 0.981 1574.350 0.01689
0.06881 0.15134 0.47748 0.50560 0.00724 0.921 1574.387 0.01692
0.06891 0.15156 0.47816 0.50631 0.00906 0.982 1574.424 0.01694
0.06901 0.15177 0.47884 0.50703 0.01087 1.053 1574.461 0.01697
0.06911 0.15199 0.47951 0.50775 0.01268 1.135 1574.497 0.01699
0.06921 0.15220 0.48019 0.50847 0.01449 1.045 1574.534 0.01701
0.06930 0.15242 0.48087 0.50918 0.01630 0.751 1574.571 0.01704
0.06940 0.15263 0.48155 0.50990 0.01811 0.965 1574.607 0.01706
0.06950 0.15285 0.48222 0.51062 0.01992 0.965 1574.644 0.01708
0.06960 0.15306 0.48290 0.51134 0.02174 1.088 1574.681 0.01711
0.06969 0.15328 0.48358 0.51206 0.02355 0.814 1574.718 0.01713
0.06979 0.15349 0.48426 0.51277 0.02536 0.967 1574.754 0.01715
0.06989 0.15371 0.48494 0.51349 0.02717 0.941 1574.791 0.01718
0.06999 0.15392 0.48561 0.51421 0.02898 1.062 1574.828 0.01720
0.07009 0.15414 0.48629 0.51493 0.03080 1.002 1574.864 0.01723
0.07018 0.15435 0.48697 0.51565 0.03261 1.001 1574.901 0.01725
0.07028 0.15457 0.48765 0.51636 0.03442 1.167 1574.938 0.01727
0.07038 0.15478 0.48833 0.51708 0.03623 1.042 1574.975 0.01730
0.07048 0.15500 0.48900 0.51780 0.03804 0.977 1575.011 0.01732
0.07057 0.15521 0.48968 0.51852 0.03986 1.134 1575.048 0.01734
0.07067 0.15543 0.49036 0.51924 0.04167 0.763 1575.085 0.01737
0.07077 0.15564 0.49104 0.51995 0.04348 1.049 1575.121 0.01739
0.07087 0.15586 0.49172 0.52067 0.04529 1.151 1575.158 0.01742
0.07096 0.15607 0.49240 0.52139 0.04711 0.936 1575.195 0.01744
0.07106 0.15629 0.49307 0.52211 0.04892 1.100 1575.232 0.01746
0.07116 0.15650 0.49375 0.52283 0.05073 1.034 1575.268 0.01749
0.07126 0.15672 0.49443 0.52355 0.05254 1.057 1575.305 0.01751
0.07136 0.15693 0.49511 0.52426 0.05436 0.854 1575.342 0.01753
0.07145 0.15715 0.49579 0.52498 0.05617 1.091 1575.378 0.01756
0.07155 0.15736 0.49647 0.52570 0.05798 0.872 1575.415 0.01758
0.07165 0.15758 0.49714 0.52642 0.05980 0.947 1575.452 0.01761
0.07175 0.15779 0.49782 0.52714 0.06161 0.998 1575.489 0.01763
0.07184 0.15801 0.49850 0.52786 0.06342 0.936 1575.525 0.01765
0.07194 0.15822 0.49918 0.52857 0.06524 1.030 1575.562 0.01768
0.07204 0.15844 0.49986 0.52929 0.06705 1.124 1575.599 0.01770
0.07214 0.15865 0.50054 0.53001 0.06886 0.838 1575.635 0.01772
0.07224 0.15887 0.50122 0.53073 0.07068 0.850 1575.672 0.01775
0.07233 0.15908 0.50189 0.53145 0.07249 0.864 1575.709 0.01777
0.07243 0.15930 0.50257 0.53217 0.07430 0.817 1575.746 0.01780
0.07253 0.15951 0.50325 0.53289 0.07612 0.870 1575.782 0.01782
0.07263 0.15973 0.50393 0.53360 0.07793 1.137 1575.819 0.01784
0.07272 0.15994 0.50461 0.53432 0.07974 1.163 1575.856 0.01787
0.07282 0.16016 0.50529 0.53504 0.08156 0.836 1575.892 0.01789
0.07292 0.16037 0.50597 0.53576 0.08337 1.070 1575.929 0.01791
0.07302 0.16059 0.50665 0.53648 0.08518 0.945 1575.966 0.01794
0.07312 0.16080 0.50732 0.53720 0.08700 0.830 1576.003 0.01796
0.07321 0.16102 0.50800 0.53792 0.08881 0.872 1576.039 0.01798
0.07331 0.16123 0.50868 0.53864 0.09063 1.028 1576.076 0.01801
0.07341 0.16145 0.50936 0.53935 0.09244 0.748 1576.113 0.01803
0.07351 0.16166 0.51004 0.54007 0.09426 0.884 1576.149 0.01806
0.07361 0.16188 0.51072 0.54079 0.09607 0.895 1576.186 0.01808
0.07370 0.16210 0.51140 0.54151 0.09788 0.969 1576.223 0.01810
0.07380 0.16231 0.51208 0.54223 0.09970 0.958 1576.260 0.01813
0.07390 0.16253 0.51276 0.54295 0.10151 1.011 1576.296 0.01815
0.07400 0.16274 0.51343 0.54367 0.10333 0.899 1576.333 0.01817
0.07409 0.16296 0.51411 0.54439 0.10514 0.987 1576.370 0.01820
0.07419 0.16317 0.51479 0.54511 0.10696 0.944 1576.406 0.01822
0.07429 0.16339 0.51547 0.54582 0.10877 0.920 1576.443 0.01825
0.07439 0.16360 0.51615 0.54654 0.11059 0.888 1576.480 0.01827
0.07449 0.16382 0.51683 0.54726 0.11240 1.034 1576.517 0.01829
0.07458 0.16403 0.51751 0.54798 0.11422 1.035 1576.553 0.01832
0.07468 0.16425 0.51819 0.54870 0.11603 1.038 1576.590 0.01834
0.07478 0.16446 0.51887 0.54942 0.11785 0.821 1576.627 0.01836
0.07488 0.16468 0.51955 0.55014 0.11966 0.975 1576.663 0.01839
0.07498 0.16489 0.52023 0.55086 0.12148 0.944 1576.700 0.01841
0.07507 0.16511 0.52090 0.55158 0.12329 0.767 1576.737 0.01844
0.07517 0.16532 0.52158 0.55230 0.12511 1.163 1576.774 0.01846
0.07527 0.16554 0.52226 0.55302 0.12692 1.005 1576.810 0.01848
0.07537 0.16575 0.52294 0.55374 0.12874 0.985 1576.847 0.01851
0.07547 0.16597 0.52362 0.55446 0.13055 1.028 1576.884 0.01853
0.07556 0.16619 0.52430 0.55517 0.13237 0.877 1576.920 0.01855
0.07566 0.16640 0.52498 0.55589 0.13418 0.956 1576.957 0.01858
0.07576 0.16662 0.52566 0.55661 0.13600 0.930 1576.994 0.01860
0.07586 0.16683 0.52634 0.55733 0.13782 0.754 1577.031 0.01863
0.07595 0.16705 0.52702 0.55805 0.13963 1.302 1577.067 0.01865
0.07605 0.16726 0.52770 0.55877 0.14145 0.977 1577.104 0.01867
0.07615 0.16748 0.52838 0.55949 0.14326 0.775 1577.141 0.01870
0.07625 0.16769 0.52906 0.56021 0.14508 1.010 1577.177 0.01872
0.07635 0.16791 0.52974 0.56093 0.14689 0.894 1577.214 0.01874
0.07644 0.16812 0.53042 0.56165 0.14871 0.863 1577.251 0.01877
0.07654 0.16834 0.53110 0.56237 0.15053 0.874 1577.287 0.01879
0.07664 0.16855 0.53178 0.56309 0.15234 0.980 1577.324 0.01881
0.07674 0.16877 0.53246 0.56381 0.15416 1.000 1577.361 0.01884
0.07684 0.16899 0.53314 0.56453 0.15598 1.090 1577.398 0.01886
0.07693 0.16920 0.53382 0.56525 0.15779 0.748 1577.434 0.01889
0.07703 0.16942 0.53449 0.56597 0.15961 0.907 1577.471 0.01891
0.07713 0.16963 0.53517 0.56669 0.16143 0.939 1577.508 0.01893
0.07723 0.16985 0.53585 0.56741 0.16324 0.876 1577.544 0.01896
0.07733 0.17006 0.53653 0.56813 0.16506 1.067 1577.581 0.01898
0.07742 0.17028 0.53721 0.56885 0.16688 0.866 1577.618 0.01900
0.07752 0.17049 0.53789 0.56957 0.16869 1.047 1577.655 0.01903
0.07762 0.17071 0.53857 0.57029 0.17051 0.952 1577.691 0.01905
0.07772 0.17092 0.53925 0.57101 0.17233 1.037 1577.728 0.01908
0.07782 0.17114 0.53993 0.57173 0.17414 0.921 1577.765 0.01910
0.07791 0.17136 0.54061 0.57245 0.17596 1.039 1577.801 0.01912
0.07801 0.17157 0.54129 0.57317 0.17778 0.964 1577.838 0.01915
0.07811 0.17179 0.54197 0.57389 0.17959 0.932 1577.875 0.01917
0.07821 0.17200 0.54265 0.57461 0.18141 1.071 1577.912 0.01919
0.07831 0.17222 0.54333 0.57533 0.18323 0.806 1577.948 0.01922
0.07840 0.17243 0.54401 0.57605 0.18505 0.838 1577.985 0.01924
0.07850 0.17265 0.54469 0.57677 0.18686 0.807 1578.022 0.01927
0.07860 0.17286 0.54537 0.57749 0.18868 0.775 1578.058 0.01929
0.07870 0.17308 0.54605 0.57821 0.19050 1.073 1578.095 0.01931
0.07880 0.17330 0.54673 0.57893 0.19232 1.031 1578.132 0.01934
0.07889 0.17351 0.54741 0.57965 0.19413 0.936 1578.169 0.01936
0.07899 0.17373 0.54809 0.58037 0.19595 1.021 1578.205 0.01938
0.07909 0.17394 0.54877 0.58109 0.19777 0.946 1578.242 0.01941
0.07919 0.17416 0.54945 0.58181 0.19959 0.861 1578.279 0.01943
0.07929 0.17437 0.55014 0.58253 0.20141 1.046 1578.315 0.01946
0.07938 0.17459 0.55082 0.58325 0.20322 0.920 1578.352 0.01948
0.07948 0.17481 0.55150 0.58397 0.20504 1.020 1578.389 0.01950
0.07958 0.17502 0.55218 0.58469 0.20686 0.936 1578.426 0.01953
0.07968 0.17524 0.55286 0.58541 0.20868 0.940 1578.462 0.01955
0.07978 0.17545 0.55354 0.58613 0.21050 0.961 1578.499 0.01957
0.07987 0.17567 0.55422 0.58685 0.21231 1.248 1578.536 0.01960
0.07997 0.17588 0.55490 0.58757 0.21413 0.891 1578.572 0.01962
0.08007 0.17610 0.55558 0.58829 0.21595 0.990 1578.609 0.01964
0.08017 0.17631 0.55626 0.58901 0.21777 0.902 1578.646 0.01967
0.08027 0.17653 0.55694 0.58973 0.21959 0.890 1578.683 0.01969
0.08036 0.17675 0.55762 0.59046 0.22141 0.984 1578.719 0.01972
0.08046 0.17696 0.55830 0.59118 0.22323 0.959 1578.756 0.01974
0.08056 0.17718 0.55898 0.59190 0.22504 1.128 1578.793 0.01976
0.08066 0.17739 0.55966 0.59262 0.22686 0.823 1578.829 0.01979
0.08076 0.17761 0.56034 0.59334 0.22868 0.925 1578.866 0.01981
0.08086 0.17782 0.56102 0.59406 0.23050 0.944 1578.903 0.01983
0.08095 0.17804 0.56170 0.59478 0.23232 0.956 1578.940 0.01986
0.08105 0.17826 0.56238 0.59550 0.23414 0.871 1578.976 0.01988
0.08115 0.17847 0.56306 0.59622 0.23596 0.928 1579.013 0.01991
0.08125 0.17869 0.56375 0.59694 0.23778 0.901 1579.050 0.01993
0.08135 0.17890 0.56443 0.59766 0.23960 1.001 1579.086 0.01995
0.08144 0.17912 0.56511 0.59838 0.24142 0.845 1579.123 0.01998
0.08154 0.17934 0.56579 0.59910 0.24324 1.003 1579.160 0.02000
0.08164 0.17955 0.56647 0.59983 0.24505 1.259 1579.197 0.02002
0.08174 0.17977 0.56715 0.60055 0.24687 1.160 1579.233 0.02005
0.08184 0.17998 0.56783 0.60127 0.24869 1.217 1579.270 0.02007
0.08193 0.18020 0.56851 0.60199 0.25051 0.832 1579.307 0.02010
0.08203 0.18041 0.56919 0.60271 0.25233 1.003 1579.343 0.02012
0.08213 0.18063 0.56987 0.60343 0.25415 0.918 1579.380 0.02014
0.08223 0.18085 0.57055 0.60415 0.25597 1.033 1579.417 0.02017
0.08233 0.18106 0.57124 0.60487 0.25779 0.962 1579.454 0.02019
0.08243 0.18128 0.57192 0.60559 0.25961 1.205 1579.490 0.02021
0.08252 0.18149 0.57260 0.60631 0.26143 1.034 1579.527 0.02024
0.08262 0.18171 0.57328 0.60704 0.26325 1.020 1579.564 0.02026
0.08272 0.18193 0.57396 0.60776 0.26507 0.720 1579.600 0.02029
0.08282 0.18214 0.57464 0.60848 0.26689 0.992 1579.637 0.02031
0.08292 0.18236 0.57532 0.60920 0.26871 1.063 1579.674 0.02033
0.08301 0.18257 0.57600 0.60992 0.27053 0.977 1579.711 0.02036
0.08311 0.18279 0.57668 0.61064 0.27235 0.992 1579.747 0.02038
0.08321 0.18300 0.57737 0.61136 0.27417 1.178 1579.784 0.02040
0.08331 0.18322 0.57805 0.61209 0.27599 0.778 1579.821 0.02043
0.08341 0.18344 0.57873 0.61281 0.27782 0.907 1579.857 0.02045
0.08351 0.18365 0.57941 0.61353 0.27964 1.192 1579.894 0.02047
0.08360 0.18387 0.58009 0.61425 0.28146 1.121 1579.931 0.02050
0.08370 0.18408 0.58077 0.61497 0.28328 0.921 1579.968 0.02052
0.08380 0.18430 0.58145 0.61569 0.28510 0.907 1580.004 0.02055
0.08390 0.18452 0.58213 0.61641 0.28692 0.720 1580.041 0.02057
0.08400 0.18473 0.58282 0.61714 0.28874 1.093 1580.078 0.02059
0.08409 0.18495 0.58350 0.61786 0.29056 1.036 1580.114 0.02062
0.08419 0.18516 0.58418 0.61858 0.29238 0.965 1580.151 0.02064
0.08429 0.18538 0.58486 0.61930 0.29420 1.138 1580.188 0.02066
0.08439 0.18560 0.58554 0.62002 0.29602 1.124 1580.225 0.02069
0.08449 0.18581 0.58622 0.62074 0.29785 0.909 1580.261 0.02071
0.08459 0.18603 0.58690 0.62146 0.29967 0.995 1580.298 0.02074
0.08468 0.18624 0.58759 0.62219 0.30149 0.894 1580.335 0.02076
0.08478 0.18646 0.58827 0.62291 0.30331 0.880 1580.371 0.02078
0.08488 0.18668 0.58895 0.62363 0.30513 1.066 1580.408 0.02081
0.08498 0.18689 0.58963 0.62435 0.30695 1.138 1580.445 0.02083
0.08508 0.18711 0.59031 0.62507 0.30877 1.153 1580.482 0.02085
0.08517 0.18732 0.59099 0.62580 0.31060 1.196 1580.518 0.02088
0.08527 0.18754 0.59168 0.62652 0.31242 0.967 1580.555 0.02090
0.08537 0.18776 0.59236 0.62724 0.31424 1.154 1580.592 0.02093
0.08547 0.18797 0.59304 0.62796 0.31606 1.169 1580.628 0.02095
0.08557 0.18819 0.59372 0.62868 0.31788 1.054 1580.665 0.02097
0.08567 0.18841 0.59440 0.62941 0.31971 0.796 1580.702 0.02100
0.08576 0.18862 0.59509 0.63013 0.32153 0.811 1580.739 0.02102
0.08586 0.18884 0.59577 0.63085 0.32335 1.055 1580.775 0.02104
0.08596 0.18905 0.59645 0.63157 0.32517 0.840 1580.812 0.02107
0.08606 0.18927 0.59713 0.63229 0.32699 0.940 1580.849 0.02109
0.08616 0.18949 0.59781 0.63302 0.32882 0.998 1580.885 0.02112
0.08626 0.18970 0.59849 0.63374 0.33064 0.997 1580.922 0.02114
0.08635 0.18992 0.59918 0.63446 0.33246 0.868 1580.959 0.02116
0.08645 0.19013 0.59986 0.63518 0.33428 1.032 1580.996 0.02119
0.08655 0.19035 0.60054 0.63590 0.33611 1.068 1581.032 0.02121
0.08665 0.19057 0.60122 0.63663 0.33793 0.882 1581.069 0.02123
0.08675 0.19078 0.60190 0.63735 0.33975 0.893 1581.106 0.02126
0.08685 0.19100 0.60259 0.63807 0.34158 0.857 1581.142 0.02128
0.08694 0.19122 0.60327 0.63879 0.34340 1.003 1581.179 0.02130
0.08704 0.19143 0.60395 0.63952 0.34522 0.855 1581.216 0.02133
0.08714 0.19165 0.60463 0.64024 0.34704 0.947 1581.253 0.02135
0.08724 0.19186 0.60532 0.64096 0.34887 0.949 1581.289 0.02138
0.08734 0.19208 0.60600 0.64168 0.35069 1.002 1581.326 0.02140
0.08744 0.19230 0.60668 0.64240 0.35251 1.028 1581.363 0.02142
0.08753 0.19251 0.60736 0.64313 0.35434 1.062 1581.399 0.02145
0.08763 0.19273 0.60804 0.64385 0.35616 1.005 1581.436 0.02147
0.08773 0.19295 0.60873 0.64457 0.35798 0.906 1581.473 0.02149
0.08783 0.19316 0.60941 0.64529 0.35981 0.891 1581.510 0.02152
0.08793 0.19338 0.61009 0.64602 0.36163 1.055 1581.546 0.02154
0.08803 0.19359 0.61077 0.64674 0.36345 1.011 1581.583 0.02157
0.08812 0.19381 0.61146 0.64746 0.36528 0.767 1581.620 0.02159
0.08822 0.19403 0.61214 0.64818 0.36710 0.896 1581.656 0.02161
0.08832 0.19424 0.61282 0.64891 0.36892 1.213 1581.693 0.02164
0.08842 0.19446 0.61350 0.64963 0.37075 1.098 1581.730 0.02166
0.08852 0.19468 0.61419 0.65035 0.37257 0.868 1581.767 0.02168
0.08862 0.19489 0.61487 0.65108 0.37440 1.127 1581.803 0.02171
0.08871 0.19511 0.61555 0.65180 0.37622 0.882 1581.840 0.02173
0.08881 0.19532 0.61623 0.65252 0.37804 0.824 1581.877 0.02176
0.08891 0.19554 0.61692 0.65324 0.37987 0.781 1581.913 0.02178
0.08901 0.19576 0.61760 0.65397 0.38169 1.025 1581.950 0.02180
0.08911 0.19597 0.61828 0.65469 0.38352 0.723 1581.987 0.02183
0.08921 0.19619 0.61896 0.65541 0.38534 0.939 1582.024 0.02185
0.08930 0.19641 0.61965 0.65613 0.38716 1.069 1582.060 0.02187
0.08940 0.19662 0.62033 0.65686 0.38899 1.011 1582.097 0.02190
0.08950 0.19684 0.62101 0.65758 0.39081 0.882 1582.134 0.02192
0.08960 0.19706 0.62169 0.65830 0.39264 1.127 1582.170 0.02195
0.08970 0.19727 0.62238 0.65903 0.39446 0.940 1582.207 0.02197
0.08980 0.19749 0.62306 0.65975 0.39629 1.143 1582.244 0.02199
0.08989 0.19771 0.62374 0.66047 0.39811 0.999 1582.281 0.02202
0.08999 0.19792 0.62443 0.66120 0.39994 0.768 1582.317 0.02204
0.09009 0.19814 0.62511 0.66192 0.40176 1.029 1582.354 0.02206
0.09019 0.19835 0.62579 0.66264 0.40359 0.914 1582.391 0.02209
0.09029 0.19857 0.62647 0.66336 0.40541 0.899 1582.427 0.02211
0.09039 0.19879 0.62716 0.66409 0.40724 1.173 1582.464 0.02213
0.09049 0.19900 0.62784 0.66481 0.40906 1.188 1582.501 0.02216
0.09058 0.19922 0.62852 0.66553 0.41089 1.073 1582.538 0.02218
0.09068 0.19944 0.62921 0.66626 0.41271 1.087 1582.574 0.02221
0.09078 0.19965 0.62989 0.66698 0.41454 1.130 1582.611 0.02223
0.09088 0.19987 0.63057 0.66770 0.41636 1.072 1582.648 0.02225
0.09098 0.20009 0.63126 0.66843 0.41819 1.145 1582.684 0.02228
0.09108 0.20030 0.63194 0.66915 0.42001 1.116 1582.721 0.02230
0.09117 0.20052 0.63262 0.66987 0.42184 0.813 1582.758 0.02232
0.09127 0.20074 0.63331 0.67060 0.42367 0.885 1582.794 0.02235
0.09137 0.20095 0.63399 0.67132 0.42549 1.014 1582.831 0.02237
0.09147 0.20117 0.63467 0.67204 0.42732 0.913 1582.868 0.02240
0.09157 0.20139 0.63535 0.67277 0.42914 0.899 1582.905 0.02242
0.09167 0.20160 0.63604 0.67349 0.43097 0.927 1582.941 0.02244
0.09177 0.20182 0.63672 0.67421 0.43279 0.984 1582.978 0.02247
0.09186 0.20204 0.63740 0.67494 0.43462 0.999 1583.015 0.02249
0.09196 0.20225 0.63809 0.67566 0.43645 0.999 1583.051 0.02251
0.09206 0.20247 0.63877 0.67639 0.43827 0.985 1583.088 0.02254
0.09216 0.20268 0.63945 0.67711 0.44010 1.028 1583.125 0.02256
0.09226 0.20290 0.64014 0.67783 0.44192 1.129 1583.162 0.02259
0.09236 0.20312 0.64082 0.67856 0.44375 0.826 1583.198 0.02261
0.09245 0.20333 0.64150 0.67928 0.44558 0.913 1583.235 0.02263
0.09255 0.20355 0.64219 0.68000 0.44740 1.086 1583.272 0.02266
0.09265 0.20377 0.64287 0.68073 0.44923 0.941 1583.308 0.02268
0.09275 0.20398 0.64356 0.68145 0.45106 0.753 1583.345 0.02270
0.09285 0.20420 0.64424 0.68217 0.45288 0.969 1583.382 0.02273
0.09295 0.20442 0.64492 0.68290 0.45471 1.113 1583.419 0.02275
0.09305 0.20463 0.64561 0.68362 0.45654 0.868 1583.455 0.02278
0.09314 0.20485 0.64629 0.68435 0.45836 1.069 1583.492 0.02280
0.09324 0.20507 0.64697 0.68507 0.46019 0.926 1583.529 0.02282
0.09334 0.20528 0.64766 0.68579 0.46202 0.868 1583.565 0.02285
0.09344 0.20550 0.64834 0.68652 0.46384 1.098 1583.602 0.02287
0.09354 0.20572 0.64902 0.68724 0.46567 0.839 1583.639 0.02289
0.09364 0.20593 0.64971 0.68797 0.46750 1.041 1583.676 0.02292
0.09374 0.20615 0.65039 0.68869 0.46933 0.984 1583.712 0.02294
0.09383 0.20637 0.65108 0.68941 0.47115 0.969 1583.749 0.02296
0.09393 0.20659 0.65176 0.69014 0.47298 1.127 1583.786 0.02299
0.09403 0.20680 0.65244 0.69086 0.47481 0.911 1583.822 0.02301
0.09413 0.20702 0.65313 0.69159 0.47663 1.184 1583.859 0.02304
0.09423 0.20724 0.65381 0.69231 0.47846 0.954 1583.896 0.02306
0.09433 0.20745 0.65449 0.69303 0.48029 1.314 1583.933 0.02308
0.09443 0.20767 0.65518 0.69376 0.48212 1.054 1583.969 0.02311
0.09452 0.20789 0.65586 0.69448 0.48395 0.882 1584.006 0.02313
0.09462 0.20810 0.65655 0.69521 0.48577 0.925 1584.043 0.02315
0.09472 0.20832 0.65723 0.69593 0.48760 0.925 1584.079 0.02318
0.09482 0.20854 0.65791 0.69666 0.48943 1.054 1584.116 0.02320
0.09492 0.20875 0.65860 0.69738 0.49126 0.983 1584.153 0.02323
0.09502 0.20897 0.65928 0.69810 0.49308 1.055 1584.190 0.02325
0.09512 0.20919 0.65997 0.69883 0.49491 0.998 1584.226 0.02327
0.09521 0.20940 0.66065 0.69955 0.49674 1.056 1584.263 0.02330
0.09531 0.20962 0.66133 0.70028 0.49857 0.854 1584.300 0.02332
0.09541 0.20984 0.66202 0.70100 0.50040 0.984 1584.336 0.02334
0.09551 0.21005 0.66270 0.70173 0.50223 0.969 1584.373 0.02337
0.09561 0.21027 0.66339 0.70245 0.50405 1.069 1584.410 0.02339
0.09571 0.21049 0.66407 0.70318 0.50588 0.911 1584.447 0.02342
0.09581 0.21070 0.66476 0.70390 0.50771 1.156 1584.483 0.02344
0.09590 0.21092 0.66544 0.70462 0.50954 1.041 1584.520 0.02346
0.09600 0.21114 0.66612 0.70535 0.51137 1.070 1584.557 0.02349
0.09610 0.21136 0.66681 0.70607 0.51320 0.941 1584.593 0.02351
0.09620 0.21157 0.66749 0.70680 0.51503 1.242 1584.630 0.02353
0.09630 0.21179 0.66818 0.70752 0.51685 0.955 1584.667 0.02356
0.09640 0.21201 0.66886 0.70825 0.51868 1.070 1584.704 0.02358
0.09650 0.21222 0.66955 0.70897 0.52051 0.869 1584.740 0.02361
0.09659 0.21244 0.67023 0.70970 0.52234 0.811 1584.777 0.02363
0.09669 0.21266 0.67091 0.71042 0.52417 0.926 1584.814 0.02365
0.09679 0.21287 0.67160 0.71115 0.52600 0.983 1584.850 0.02368
0.09689 0.21309 0.67228 0.71187 0.52783 0.810 1584.887 0.02370
0.09699 0.21331 0.67297 0.71260 0.52966 1.040 1584.924 0.02372
0.09709 0.21352 0.67365 0.71332 0.53149 0.925 1584.961 0.02375
0.09719 0.21374 0.67434 0.71405 0.53332 0.911 1584.997 0.02377
0.09728 0.21396 0.67502 0.71477 0.53515 0.997 1585.034 0.02379
0.09738 0.21418 0.67571 0.71550 0.53697 1.168 1585.071 0.02382
0.09748 0.21439 0.67639 0.71622 0.53880 0.882 1585.107 0.02384
0.09758 0.21461 0.67708 0.71695 0.54063 1.090 1585.144 0.02387
0.09768 0.21483 0.67776 0.71767 0.54246 0.732 1585.181 0.02389
0.09778 0.21504 0.67844 0.71840 0.54429 0.831 1585.218 0.02391
0.09788 0.21526 0.67913 0.71912 0.54612 0.856 1585.254 0.02394
0.09798 0.21548 0.67981 0.71985 0.54795 0.967 1585.291 0.02396
0.09807 0.21569 0.68050 0.72057 0.54978 1.042 1585.328 0.02398
0.09817 0.21591 0.68118 0.72130 0.55161 1.098 1585.364 0.02401
0.09827 0.21613 0.68187 0.72202 0.55344 1.108 1585.401 0.02403
0.09837 0.21635 0.68255 0.72275 0.55527 1.037 1585.438 0.02406
0.09847 0.21656 0.68324 0.72347 0.55710 0.960 1585.475 0.02408
0.09857 0.21678 0.68392 0.72420 0.55893 0.926 1585.511 0.02410
0.09867 0.21700 0.68461 0.72492 0.56076 1.051 1585.548 0.02413
0.09877 0.21721 0.68529 0.72565 0.56259 1.131 1585.585 0.02415
0.09886 0.21743 0.68598 0.72637 0.56442 0.900 1585.621 0.02417
0.09896 0.21765 0.68666 0.72710 0.56626 0.931 1585.658 0.02420
0.09906 0.21787 0.68735 0.72782 0.56809 1.079 1585.695 0.02422
0.09916 0.21808 0.68803 0.72855 0.56992 0.807 1585.732 0.02425
0.09926 0.21830 0.68872 0.72927 0.57175 1.150 1585.768 0.02427
0.09936 0.21852 0.68940 0.73000 0.57358 0.921 1585.805 0.02429
