x y z dist_scaled dist_frac flux_norm sig_norm wavelength redshift
0.08011 0.13782 0.47628 0.50225 0.00000 0.938 0.083 1574.216 0.01681
0.08022 0.13801 0.47696 0.50296 0.00181 0.947 0.083 1574.253 0.01683
0.08033 0.13821 0.47764 0.50368 0.00362 0.955 0.084 1574.289 0.01685
0.08045 0.13841 0.47832 0.50440 0.00543 1.015 0.086 1574.326 0.01688
0.08056 0.13860 0.47900 0.50512 0.00724 1.075 0.089 1574.363 0.01690
0.08068 0.13880 0.47968 0.50584 0.00906 0.963 0.084 1574.399 0.01693
0.08079 0.13900 0.48036 0.50655 0.01087 0.955 0.084 1574.436 0.01695
0.08091 0.13920 0.48104 0.50727 0.01268 0.941 0.083 1574.473 0.01697
0.08102 0.13939 0.48172 0.50799 0.01449 0.949 0.084 1574.510 0.01700
0.08114 0.13959 0.48240 0.50871 0.01630 0.882 0.081 1574.546 0.01702
0.08125 0.13979 0.48308 0.50942 0.01811 1.002 0.086 1574.583 0.01704
0.08136 0.13998 0.48377 0.51014 0.01992 1.092 0.090 1574.620 0.01707
0.08148 0.14018 0.48445 0.51086 0.02174 1.085 0.089 1574.656 0.01709
0.08159 0.14038 0.48513 0.51158 0.02355 1.026 0.087 1574.693 0.01712
0.08171 0.14057 0.48581 0.51230 0.02536 0.989 0.085 1574.730 0.01714
0.08182 0.14077 0.48649 0.51301 0.02717 1.049 0.088 1574.767 0.01716
0.08194 0.14097 0.48717 0.51373 0.02898 0.824 0.082 1574.803 0.01719
0.08205 0.14116 0.48785 0.51445 0.03080 0.914 0.082 1574.840 0.01721
0.08217 0.14136 0.48853 0.51517 0.03261 1.049 0.088 1574.877 0.01723
0.08228 0.14156 0.48921 0.51589 0.03442 0.825 0.078 1574.913 0.01726
0.08240 0.14176 0.48989 0.51660 0.03623 0.975 0.085 1574.950 0.01728
0.08251 0.14195 0.49057 0.51732 0.03804 1.036 0.088 1574.987 0.01731
0.08262 0.14215 0.49125 0.51804 0.03986 1.059 0.089 1575.024 0.01733
0.08274 0.14235 0.49194 0.51876 0.04167 0.957 0.084 1575.060 0.01735
0.08285 0.14254 0.49262 0.51948 0.04348 1.104 0.090 1575.097 0.01738
0.08297 0.14274 0.49330 0.52019 0.04529 0.871 0.080 1575.134 0.01740
0.08308 0.14294 0.49398 0.52091 0.04711 1.135 0.092 1575.170 0.01742
0.08320 0.14314 0.49466 0.52163 0.04892 1.263 0.097 1575.207 0.01745
0.08331 0.14333 0.49534 0.52235 0.05073 1.046 0.088 1575.244 0.01747
0.08343 0.14353 0.49602 0.52307 0.05254 1.046 0.088 1575.281 0.01749
0.08354 0.14373 0.49670 0.52379 0.05436 1.042 0.088 1575.317 0.01752
0.08366 0.14392 0.49738 0.52450 0.05617 1.010 0.087 1575.354 0.01754
0.08377 0.14412 0.49807 0.52522 0.05798 0.867 0.080 1575.391 0.01757
0.08388 0.14432 0.49875 0.52594 0.05980 0.949 0.084 1575.427 0.01759
0.08400 0.14452 0.49943 0.52666 0.06161 0.984 0.086 1575.464 0.01761
0.08411 0.14471 0.50011 0.52738 0.06342 1.041 0.088 1575.501 0.01764
0.08423 0.14491 0.50079 0.52810 0.06524 0.970 0.085 1575.537 0.01766
0.08434 0.14511 0.50147 0.52881 0.06705 0.754 0.079 1575.574 0.01768
0.08446 0.14530 0.50215 0.52953 0.06886 0.873 0.081 1575.611 0.01771
0.08457 0.14550 0.50283 0.53025 0.07068 1.160 0.093 1575.648 0.01773
0.08469 0.14570 0.50352 0.53097 0.07249 0.926 0.083 1575.684 0.01776
0.08480 0.14590 0.50420 0.53169 0.07430 0.972 0.085 1575.721 0.01778
0.08492 0.14609 0.50488 0.53241 0.07612 1.010 0.087 1575.758 0.01780
0.08503 0.14629 0.50556 0.53313 0.07793 1.087 0.090 1575.794 0.01783
0.08515 0.14649 0.50624 0.53384 0.07974 0.988 0.086 1575.831 0.01785
0.08526 0.14668 0.50692 0.53456 0.08156 0.928 0.087 1575.868 0.01787
0.08537 0.14688 0.50761 0.53528 0.08337 0.890 0.082 1575.905 0.01790
0.08549 0.14708 0.50829 0.53600 0.08518 1.058 0.089 1575.941 0.01792
0.08560 0.14728 0.50897 0.53672 0.08700 0.915 0.083 1575.978 0.01795
0.08572 0.14747 0.50965 0.53744 0.08881 1.131 0.092 1576.015 0.01797
0.08583 0.14767 0.51033 0.53816 0.09063 1.164 0.093 1576.051 0.01799
0.08595 0.14787 0.51101 0.53887 0.09244 1.024 0.088 1576.088 0.01802
0.08606 0.14806 0.51169 0.53959 0.09426 1.015 0.087 1576.125 0.01804
0.08618 0.14826 0.51238 0.54031 0.09607 0.915 0.083 1576.162 0.01806
0.08629 0.14846 0.51306 0.54103 0.09788 1.084 0.090 1576.198 0.01809
0.08641 0.14866 0.51374 0.54175 0.09970 0.977 0.086 1576.235 0.01811
0.08652 0.14885 0.51442 0.54247 0.10151 1.078 0.090 1576.272 0.01814
0.08664 0.14905 0.51510 0.54319 0.10333 1.064 0.089 1576.308 0.01816
0.08675 0.14925 0.51579 0.54391 0.10514 0.872 0.085 1576.345 0.01818
0.08687 0.14945 0.51647 0.54463 0.10696 1.066 0.089 1576.382 0.01821
0.08698 0.14964 0.51715 0.54535 0.10877 0.900 0.082 1576.419 0.01823
0.08709 0.14984 0.51783 0.54606 0.11059 0.900 0.082 1576.455 0.01825
0.08721 0.15004 0.51851 0.54678 0.11240 0.907 0.083 1576.492 0.01828
0.08732 0.15023 0.51919 0.54750 0.11422 0.992 0.086 1576.529 0.01830
0.08744 0.15043 0.51988 0.54822 0.11603 0.836 0.084 1576.565 0.01832
0.08755 0.15063 0.52056 0.54894 0.11785 0.976 0.086 1576.602 0.01835
0.08767 0.15083 0.52124 0.54966 0.11966 0.992 0.086 1576.639 0.01837
0.08778 0.15102 0.52192 0.55038 0.12148 1.036 0.088 1576.676 0.01840
0.08790 0.15122 0.52260 0.55110 0.12329 1.078 0.090 1576.712 0.01842
0.08801 0.15142 0.52329 0.55182 0.12511 0.918 0.083 1576.749 0.01844
0.08813 0.15162 0.52397 0.55254 0.12692 0.924 0.088 1576.786 0.01847
0.08824 0.15181 0.52465 0.55326 0.12874 0.944 0.084 1576.822 0.01849
0.08836 0.15201 0.52533 0.55398 0.13055 0.860 0.080 1576.859 0.01851
0.08847 0.15221 0.52602 0.55470 0.13237 0.991 0.086 1576.896 0.01854
0.08859 0.15241 0.52670 0.55541 0.13418 0.868 0.085 1576.933 0.01856
0.08870 0.15260 0.52738 0.55613 0.13600 0.891 0.082 1576.969 0.01859
0.08882 0.15280 0.52806 0.55685 0.13782 0.784 0.081 1577.006 0.01861
0.08893 0.15300 0.52874 0.55757 0.13963 0.708 0.078 1577.043 0.01863
0.08904 0.15320 0.52943 0.55829 0.14145 0.938 0.084 1577.079 0.01866
0.08916 0.15339 0.53011 0.55901 0.14326 1.054 0.089 1577.116 0.01868
0.08927 0.15359 0.53079 0.55973 0.14508 0.908 0.087 1577.153 0.01870
0.08939 0.15379 0.53147 0.56045 0.14689 1.054 0.089 1577.190 0.01873
0.08950 0.15399 0.53216 0.56117 0.14871 0.970 0.086 1577.226 0.01875
0.08962 0.15418 0.53284 0.56189 0.15053 0.785 0.081 1577.263 0.01878
0.08973 0.15438 0.53352 0.56261 0.15234 1.055 0.089 1577.300 0.01880
0.08985 0.15458 0.53420 0.56333 0.15416 0.978 0.086 1577.336 0.01882
0.08996 0.15478 0.53489 0.56405 0.15598 1.025 0.088 1577.373 0.01885
0.09008 0.15497 0.53557 0.56477 0.15779 0.878 0.086 1577.410 0.01887
0.09019 0.15517 0.53625 0.56549 0.15961 0.932 0.084 1577.447 0.01889
0.09031 0.15537 0.53693 0.56621 0.16143 1.072 0.090 1577.483 0.01892
0.09042 0.15557 0.53762 0.56693 0.16324 0.956 0.085 1577.520 0.01894
0.09054 0.15576 0.53830 0.56765 0.16506 0.810 0.078 1577.557 0.01897
0.09065 0.15596 0.53898 0.56837 0.16688 0.888 0.086 1577.593 0.01899
0.09077 0.15616 0.53966 0.56909 0.16869 0.850 0.085 1577.630 0.01901
0.09088 0.15636 0.54035 0.56981 0.17051 0.981 0.086 1577.667 0.01904
0.09100 0.15655 0.54103 0.57053 0.17233 1.113 0.092 1577.704 0.01906
0.09111 0.15675 0.54171 0.57125 0.17414 0.781 0.081 1577.740 0.01908
0.09123 0.15695 0.54239 0.57197 0.17596 0.913 0.087 1577.777 0.01911
0.09134 0.15715 0.54308 0.57269 0.17778 0.936 0.084 1577.814 0.01913
0.09146 0.15734 0.54376 0.57341 0.17959 0.921 0.084 1577.850 0.01915
0.09157 0.15754 0.54444 0.57413 0.18141 0.883 0.082 1577.887 0.01918
0.09169 0.15774 0.54513 0.57485 0.18323 1.014 0.088 1577.924 0.01920
0.09180 0.15794 0.54581 0.57557 0.18505 0.946 0.095 1577.961 0.01923
0.09191 0.15813 0.54649 0.57629 0.18686 1.110 0.106 1577.997 0.01925
0.09203 0.15833 0.54717 0.57701 0.18868 0.872 0.106 1578.034 0.01927
0.09214 0.15853 0.54786 0.57773 0.19050 0.924 0.103 1578.071 0.01930
0.09226 0.15873 0.54854 0.57845 0.19232 1.069 0.104 1578.107 0.01932
0.09237 0.15892 0.54922 0.57917 0.19413 0.821 0.103 1578.144 0.01934
0.09249 0.15912 0.54991 0.57989 0.19595 0.894 0.101 1578.181 0.01937
0.09260 0.15932 0.55059 0.58061 0.19777 1.080 0.111 1578.218 0.01939
0.09272 0.15952 0.55127 0.58133 0.19959 0.832 0.104 1578.254 0.01942
0.09283 0.15971 0.55196 0.58205 0.20141 1.102 0.112 1578.291 0.01944
0.09295 0.15991 0.55264 0.58277 0.20322 1.020 0.114 1578.328 0.01946
0.09306 0.16011 0.55332 0.58349 0.20504 0.834 0.104 1578.364 0.01949
0.09318 0.16031 0.55401 0.58421 0.20686 0.917 0.103 1578.401 0.01951
0.09329 0.16051 0.55469 0.58493 0.20868 0.975 0.112 1578.438 0.01953
0.09341 0.16070 0.55537 0.58565 0.21050 0.998 0.101 1578.475 0.01956
0.09352 0.16090 0.55605 0.58637 0.21231 0.934 0.104 1578.511 0.01958
0.09364 0.16110 0.55674 0.58709 0.21413 0.892 0.108 1578.548 0.01961
0.09375 0.16130 0.55742 0.58781 0.21595 0.764 0.107 1578.585 0.01963
0.09387 0.16149 0.55810 0.58853 0.21777 0.949 0.110 1578.621 0.01965
0.09398 0.16169 0.55879 0.58925 0.21959 0.912 0.103 1578.658 0.01968
0.09410 0.16189 0.55947 0.58997 0.22141 0.828 0.111 1578.695 0.01970
0.09421 0.16209 0.56015 0.59070 0.22323 0.868 0.107 1578.732 0.01972
0.09433 0.16228 0.56084 0.59142 0.22504 1.079 0.105 1578.768 0.01975
0.09444 0.16248 0.56152 0.59214 0.22686 0.972 0.112 1578.805 0.01977
0.09456 0.16268 0.56220 0.59286 0.22868 0.953 0.111 1578.842 0.01980
0.09467 0.16288 0.56289 0.59358 0.23050 1.187 0.110 1578.878 0.01982
0.09479 0.16308 0.56357 0.59430 0.23232 1.050 0.104 1578.915 0.01984
0.09490 0.16327 0.56425 0.59502 0.23414 0.868 0.107 1578.952 0.01987
0.09502 0.16347 0.56494 0.59574 0.23596 1.011 0.107 1578.989 0.01989
0.09513 0.16367 0.56562 0.59646 0.23778 1.009 0.108 1579.025 0.01991
0.09525 0.16387 0.56631 0.59718 0.23960 0.889 0.101 1579.062 0.01994
0.09536 0.16406 0.56699 0.59790 0.24142 1.139 0.114 1579.099 0.01996
0.09548 0.16426 0.56767 0.59862 0.24324 0.993 0.101 1579.135 0.01998
0.09559 0.16446 0.56836 0.59934 0.24505 1.254 0.113 1579.172 0.02001
0.09571 0.16466 0.56904 0.60007 0.24687 0.952 0.105 1579.209 0.02003
0.09582 0.16486 0.56972 0.60079 0.24869 0.983 0.106 1579.246 0.02006
0.09594 0.16505 0.57041 0.60151 0.25051 0.921 0.109 1579.282 0.02008
0.09605 0.16525 0.57109 0.60223 0.25233 0.921 0.103 1579.319 0.02010
0.09617 0.16545 0.57178 0.60295 0.25415 0.848 0.112 1579.356 0.02013
0.09628 0.16565 0.57246 0.60367 0.25597 1.036 0.109 1579.392 0.02015
0.09640 0.16585 0.57314 0.60439 0.25779 0.942 0.104 1579.429 0.02017
0.09651 0.16604 0.57383 0.60511 0.25961 1.047 0.109 1579.466 0.02020
0.09663 0.16624 0.57451 0.60583 0.26143 0.985 0.106 1579.503 0.02022
0.09674 0.16644 0.57519 0.60656 0.26325 0.984 0.106 1579.539 0.02025
0.09686 0.16664 0.57588 0.60728 0.26507 1.183 0.110 1579.576 0.02027
0.09697 0.16683 0.57656 0.60800 0.26689 0.817 0.104 1579.613 0.02029
0.09709 0.16703 0.57725 0.60872 0.26871 1.058 0.104 1579.649 0.02032
0.09720 0.16723 0.57793 0.60944 0.27053 1.214 0.112 1579.686 0.02034
0.09732 0.16743 0.57861 0.61016 0.27235 0.995 0.101 1579.723 0.02036
0.09743 0.16763 0.57930 0.61088 0.27417 0.964 0.105 1579.760 0.02039
0.09755 0.16782 0.57998 0.61160 0.27599 1.016 0.102 1579.796 0.02041
0.09766 0.16802 0.58067 0.61233 0.27782 0.953 0.105 1579.833 0.02044
0.09778 0.16822 0.58135 0.61305 0.27964 1.027 0.109 1579.870 0.02046
0.09789 0.16842 0.58203 0.61377 0.28146 0.985 0.107 1579.906 0.02048
0.09801 0.16862 0.58272 0.61449 0.28328 1.049 0.110 1579.943 0.02051
0.09812 0.16881 0.58340 0.61521 0.28510 1.059 0.110 1579.980 0.02053
0.09824 0.16901 0.58409 0.61593 0.28692 1.059 0.104 1580.017 0.02055
0.09835 0.16921 0.58477 0.61665 0.28874 0.798 0.103 1580.053 0.02058
0.09847 0.16941 0.58546 0.61738 0.29056 0.945 0.105 1580.090 0.02060
0.09858 0.16961 0.58614 0.61810 0.29238 0.819 0.110 1580.127 0.02063
0.09870 0.16980 0.58682 0.61882 0.29420 0.976 0.106 1580.163 0.02065
0.09881 0.17000 0.58751 0.61954 0.29602 0.934 0.104 1580.200 0.02067
0.09893 0.17020 0.58819 0.62026 0.29785 0.893 0.108 1580.237 0.02070
0.09904 0.17040 0.58888 0.62098 0.29967 1.124 0.108 1580.274 0.02072
0.09916 0.17060 0.58956 0.62171 0.30149 1.166 0.110 1580.310 0.02074
0.09927 0.17079 0.59025 0.62243 0.30331 1.177 0.110 1580.347 0.02077
0.09939 0.17099 0.59093 0.62315 0.30513 1.125 0.108 1580.384 0.02079
0.09950 0.17119 0.59161 0.62387 0.30695 0.957 0.105 1580.420 0.02081
0.09962 0.17139 0.59230 0.62459 0.30877 0.894 0.108 1580.457 0.02084
0.09973 0.17159 0.59298 0.62531 0.31060 0.999 0.101 1580.494 0.02086
0.09985 0.17178 0.59367 0.62604 0.31242 0.800 0.103 1580.531 0.02089
0.09996 0.17198 0.59435 0.62676 0.31424 0.905 0.103 1580.567 0.02091
0.10008 0.17218 0.59504 0.62748 0.31606 0.853 0.112 1580.604 0.02093
0.10019 0.17238 0.59572 0.62820 0.31788 0.958 0.112 1580.641 0.02096
0.10031 0.17258 0.59641 0.62892 0.31971 1.032 0.103 1580.677 0.02098
0.10043 0.17277 0.59709 0.62965 0.32153 0.927 0.110 1580.714 0.02100
0.10054 0.17297 0.59778 0.63037 0.32335 0.970 0.112 1580.751 0.02103
0.10066 0.17317 0.59846 0.63109 0.32517 0.813 0.104 1580.788 0.02105
0.10077 0.17337 0.59914 0.63181 0.32699 1.013 0.108 1580.824 0.02108
0.10089 0.17357 0.59983 0.63253 0.32882 0.867 0.113 1580.861 0.02110
0.10100 0.17377 0.60051 0.63326 0.33064 0.825 0.105 1580.898 0.02112
0.10112 0.17396 0.60120 0.63398 0.33246 0.951 0.105 1580.934 0.02115
0.10123 0.17416 0.60188 0.63470 0.33428 0.983 0.107 1580.971 0.02117
0.10135 0.17436 0.60257 0.63542 0.33611 1.025 0.109 1581.008 0.02119
0.10146 0.17456 0.60325 0.63614 0.33793 0.861 0.107 1581.044 0.02122
0.10158 0.17476 0.60394 0.63687 0.33975 0.985 0.107 1581.081 0.02124
0.10169 0.17495 0.60462 0.63759 0.34158 0.880 0.108 1581.118 0.02127
0.10181 0.17515 0.60531 0.63831 0.34340 1.021 0.109 1581.155 0.02129
0.10192 0.17535 0.60599 0.63903 0.34522 0.989 0.113 1581.191 0.02131
0.10204 0.17555 0.60668 0.63976 0.34704 1.096 0.113 1581.228 0.02134
0.10215 0.17575 0.60736 0.64048 0.34887 1.067 0.105 1581.265 0.02136
0.10227 0.17595 0.60805 0.64120 0.35069 0.892 0.102 1581.301 0.02138
0.10238 0.17614 0.60873 0.64192 0.35251 1.004 0.115 1581.338 0.02141
0.10250 0.17634 0.60942 0.64265 0.35434 1.113 0.107 1581.375 0.02143
0.10261 0.17654 0.61010 0.64337 0.35616 0.946 0.105 1581.412 0.02146
0.10273 0.17674 0.61079 0.64409 0.35798 0.929 0.104 1581.448 0.02148
0.10284 0.17694 0.61147 0.64481 0.35981 1.010 0.109 1581.485 0.02150
0.10296 0.17713 0.61216 0.64554 0.36163 1.158 0.110 1581.522 0.02153
0.10307 0.17733 0.61284 0.64626 0.36345 0.999 0.108 1581.558 0.02155
0.10319 0.17753 0.61353 0.64698 0.36528 0.870 0.107 1581.595 0.02157
0.10331 0.17773 0.61421 0.64770 0.36710 0.965 0.106 1581.632 0.02160
0.10342 0.17793 0.61490 0.64843 0.36892 1.124 0.108 1581.669 0.02162
0.10354 0.17813 0.61558 0.64915 0.37075 0.987 0.107 1581.705 0.02164
0.10365 0.17832 0.61627 0.64987 0.37257 0.997 0.102 1581.742 0.02167
0.10377 0.17852 0.61696 0.65059 0.37440 0.945 0.105 1581.779 0.02169
0.10388 0.17872 0.61764 0.65132 0.37622 1.029 0.103 1581.815 0.02172
0.10400 0.17892 0.61833 0.65204 0.37804 1.156 0.115 1581.852 0.02174
0.10411 0.17912 0.61901 0.65276 0.37987 0.828 0.105 1581.889 0.02176
0.10423 0.17932 0.61970 0.65348 0.38169 1.092 0.112 1581.926 0.02179
0.10434 0.17951 0.62038 0.65421 0.38352 0.997 0.102 1581.962 0.02181
0.10446 0.17971 0.62107 0.65493 0.38534 0.986 0.107 1581.999 0.02183
0.10457 0.17991 0.62175 0.65565 0.38716 0.859 0.107 1582.036 0.02186
0.10469 0.18011 0.62244 0.65638 0.38899 0.880 0.108 1582.072 0.02188
0.10480 0.18031 0.62312 0.65710 0.39081 0.911 0.109 1582.109 0.02191
0.10492 0.18051 0.62381 0.65782 0.39264 0.954 0.106 1582.146 0.02193
0.10503 0.18070 0.62450 0.65854 0.39446 0.911 0.110 1582.183 0.02195
0.10515 0.18090 0.62518 0.65927 0.39629 0.901 0.109 1582.219 0.02198
0.10527 0.18110 0.62587 0.65999 0.39811 0.870 0.114 1582.256 0.02200
0.10538 0.18130 0.62655 0.66071 0.39994 1.050 0.116 1582.293 0.02202
0.10550 0.18150 0.62724 0.66144 0.40176 0.775 0.102 1582.329 0.02205
0.10561 0.18170 0.62792 0.66216 0.40359 0.997 0.102 1582.366 0.02207
0.10573 0.18190 0.62861 0.66288 0.40541 1.029 0.109 1582.403 0.02210
0.10584 0.18209 0.62930 0.66361 0.40724 0.818 0.105 1582.440 0.02212
0.10596 0.18229 0.62998 0.66433 0.40906 0.881 0.108 1582.476 0.02214
0.10607 0.18249 0.63067 0.66505 0.41089 0.924 0.110 1582.513 0.02217
0.10619 0.18269 0.63135 0.66578 0.41271 0.733 0.100 1582.550 0.02219
0.10630 0.18289 0.63204 0.66650 0.41454 1.009 0.102 1582.586 0.02221
0.10642 0.18309 0.63272 0.66722 0.41636 0.924 0.104 1582.623 0.02224
0.10653 0.18328 0.63341 0.66795 0.41819 0.871 0.114 1582.660 0.02226
0.10665 0.18348 0.63410 0.66867 0.42001 1.062 0.111 1582.697 0.02229
0.10676 0.18368 0.63478 0.66939 0.42184 1.020 0.103 1582.733 0.02231
0.10688 0.18388 0.63547 0.67012 0.42367 1.105 0.107 1582.770 0.02233
0.10700 0.18408 0.63615 0.67084 0.42549 0.967 0.107 1582.807 0.02236
0.10711 0.18428 0.63684 0.67156 0.42732 0.713 0.105 1582.843 0.02238
0.10723 0.18448 0.63753 0.67229 0.42914 1.020 0.103 1582.880 0.02240
0.10734 0.18467 0.63821 0.67301 0.43097 0.797 0.104 1582.917 0.02243
0.10746 0.18487 0.63890 0.67373 0.43279 0.967 0.106 1582.954 0.02245
0.10757 0.18507 0.63958 0.67446 0.43462 1.009 0.102 1582.990 0.02247
0.10769 0.18527 0.64027 0.67518 0.43645 1.009 0.109 1583.027 0.02250
0.10780 0.18547 0.64096 0.67590 0.43827 0.925 0.111 1583.064 0.02252
0.10792 0.18567 0.64164 0.67663 0.44010 0.946 0.112 1583.100 0.02255
0.10803 0.18587 0.64233 0.67735 0.44192 0.936 0.111 1583.137 0.02257
0.10815 0.18606 0.64301 0.67807 0.44375 0.883 0.108 1583.174 0.02259
0.10826 0.18626 0.64370 0.67880 0.44558 0.830 0.112 1583.211 0.02262
0.10838 0.18646 0.64439 0.67952 0.44740 0.820 0.111 1583.247 0.02264
0.10850 0.18666 0.64507 0.68024 0.44923 1.159 0.110 1583.284 0.02266
0.10861 0.18686 0.64576 0.68097 0.45106 1.106 0.107 1583.321 0.02269
0.10873 0.18706 0.64645 0.68169 0.45288 0.830 0.105 1583.357 0.02271
0.10884 0.18726 0.64713 0.68242 0.45471 0.883 0.108 1583.394 0.02274
0.10896 0.18745 0.64782 0.68314 0.45654 0.979 0.106 1583.431 0.02276
0.10907 0.18765 0.64851 0.68386 0.45836 1.053 0.105 1583.468 0.02278
0.10919 0.18785 0.64919 0.68459 0.46019 0.862 0.107 1583.504 0.02281
0.10930 0.18805 0.64988 0.68531 0.46202 0.735 0.099 1583.541 0.02283
0.10942 0.18825 0.65056 0.68604 0.46384 1.032 0.104 1583.578 0.02285
0.10953 0.18845 0.65125 0.68676 0.46567 1.127 0.108 1583.614 0.02288
0.10965 0.18865 0.65194 0.68748 0.46750 0.819 0.105 1583.651 0.02290
0.10977 0.18884 0.65262 0.68821 0.46933 1.031 0.104 1583.688 0.02293
0.10988 0.18904 0.65331 0.68893 0.47115 0.957 0.112 1583.725 0.02295
0.11000 0.18924 0.65400 0.68966 0.47298 1.053 0.111 1583.761 0.02297
0.11011 0.18944 0.65468 0.69038 0.47481 0.947 0.106 1583.798 0.02300
0.11023 0.18964 0.65537 0.69110 0.47663 0.947 0.112 1583.835 0.02302
0.11034 0.18984 0.65606 0.69183 0.47846 1.181 0.111 1583.871 0.02304
0.11046 0.19004 0.65674 0.69255 0.48029 1.138 0.115 1583.908 0.02307
0.11057 0.19024 0.65743 0.69328 0.48212 1.021 0.109 1583.945 0.02309
0.11069 0.19043 0.65812 0.69400 0.48395 1.138 0.109 1583.982 0.02312
0.11080 0.19063 0.65880 0.69472 0.48577 0.862 0.107 1584.018 0.02314
0.11092 0.19083 0.65949 0.69545 0.48760 1.054 0.105 1584.055 0.02316
0.11104 0.19103 0.66018 0.69617 0.48943 0.948 0.111 1584.092 0.02319
0.11115 0.19123 0.66086 0.69690 0.49126 0.821 0.105 1584.128 0.02321
0.11127 0.19143 0.66155 0.69762 0.49308 1.002 0.114 1584.165 0.02323
0.11138 0.19163 0.66224 0.69835 0.49491 0.874 0.114 1584.202 0.02326
0.11150 0.19182 0.66293 0.69907 0.49674 0.885 0.115 1584.239 0.02328
0.11161 0.19202 0.66361 0.69979 0.49857 0.736 0.106 1584.275 0.02330
0.11173 0.19222 0.66430 0.70052 0.50040 0.991 0.108 1584.312 0.02333
0.11184 0.19242 0.66499 0.70124 0.50223 0.991 0.108 1584.349 0.02335
0.11196 0.19262 0.66567 0.70197 0.50405 0.916 0.104 1584.385 0.02338
0.11208 0.19282 0.66636 0.70269 0.50588 0.831 0.112 1584.422 0.02340
0.11219 0.19302 0.66705 0.70342 0.50771 0.938 0.105 1584.459 0.02342
0.11231 0.19322 0.66773 0.70414 0.50954 0.863 0.107 1584.496 0.02345
0.11242 0.19342 0.66842 0.70487 0.51137 0.917 0.104 1584.532 0.02347
0.11254 0.19361 0.66911 0.70559 0.51320 1.087 0.106 1584.569 0.02349
0.11265 0.19381 0.66980 0.70631 0.51503 0.980 0.107 1584.606 0.02352
0.11277 0.19401 0.67048 0.70704 0.51685 0.906 0.109 1584.642 0.02354
0.11288 0.19421 0.67117 0.70776 0.51868 1.023 0.109 1584.679 0.02357
0.11300 0.19441 0.67186 0.70849 0.52051 0.906 0.109 1584.716 0.02359
0.11312 0.19461 0.67254 0.70921 0.52234 0.864 0.107 1584.753 0.02361
