x y z dist_scaled dist_frac flux_norm wavelength redshift
-0.02714 -0.15742 0.47667 0.50273 0.00000 1.114 1574.240 0.01682
-0.02718 -0.15764 0.47735 0.50344 0.00181 0.939 1574.277 0.01685
-0.02722 -0.15787 0.47803 0.50416 0.00362 0.806 1574.314 0.01687
-0.02726 -0.15809 0.47871 0.50488 0.00543 0.908 1574.350 0.01689
-0.02730 -0.15832 0.47939 0.50560 0.00724 1.032 1574.387 0.01692
-0.02734 -0.15854 0.48007 0.50631 0.00906 0.942 1574.424 0.01694
-0.02737 -0.15877 0.48075 0.50703 0.01087 0.952 1574.461 0.01697
-0.02741 -0.15899 0.48143 0.50775 0.01268 1.006 1574.497 0.01699
-0.02745 -0.15922 0.48212 0.50847 0.01449 1.019 1574.534 0.01701
-0.02749 -0.15944 0.48280 0.50918 0.01630 1.022 1574.571 0.01704
-0.02753 -0.15967 0.48348 0.50990 0.01811 0.990 1574.607 0.01706
-0.02757 -0.15989 0.48416 0.51062 0.01992 0.889 1574.644 0.01708
-0.02761 -0.16012 0.48484 0.51134 0.02174 0.985 1574.681 0.01711
-0.02765 -0.16034 0.48552 0.51206 0.02355 1.106 1574.718 0.01713
-0.02768 -0.16056 0.48620 0.51277 0.02536 0.968 1574.754 0.01715
-0.02772 -0.16079 0.48688 0.51349 0.02717 0.982 1574.791 0.01718
-0.02776 -0.16101 0.48756 0.51421 0.02898 1.058 1574.828 0.01720
-0.02780 -0.16124 0.48824 0.51493 0.03080 0.999 1574.864 0.01723
-0.02784 -0.16146 0.48892 0.51565 0.03261 0.874 1574.901 0.01725
-0.02788 -0.16169 0.48960 0.51636 0.03442 1.090 1574.938 0.01727
-0.02792 -0.16191 0.49028 0.51708 0.03623 1.047 1574.975 0.01730
-0.02796 -0.16214 0.49096 0.51780 0.03804 1.052 1575.011 0.01732
-0.02799 -0.16236 0.49165 0.51852 0.03986 0.959 1575.048 0.01734
-0.02803 -0.16259 0.49233 0.51924 0.04167 0.823 1575.085 0.01737
-0.02807 -0.16281 0.49301 0.51995 0.04348 1.045 1575.121 0.01739
-0.02811 -0.16304 0.49369 0.52067 0.04529 0.947 1575.158 0.01742
-0.02815 -0.16326 0.49437 0.52139 0.04711 0.914 1575.195 0.01744
-0.02819 -0.16349 0.49505 0.52211 0.04892 1.006 1575.232 0.01746
-0.02823 -0.16371 0.49573 0.52283 0.05073 0.994 1575.268 0.01749
-0.02827 -0.16394 0.49641 0.52355 0.05254 1.064 1575.305 0.01751
-0.02830 -0.16416 0.49709 0.52426 0.05436 1.020 1575.342 0.01753
-0.02834 -0.16439 0.49777 0.52498 0.05617 1.198 1575.378 0.01756
-0.02838 -0.16461 0.49846 0.52570 0.05798 0.939 1575.415 0.01758
-0.02842 -0.16484 0.49914 0.52642 0.05980 1.073 1575.452 0.01761
-0.02846 -0.16506 0.49982 0.52714 0.06161 0.906 1575.489 0.01763
-0.02850 -0.16529 0.50050 0.52786 0.06342 0.976 1575.525 0.01765
-0.02854 -0.16551 0.50118 0.52857 0.06524 0.889 1575.562 0.01768
-0.02858 -0.16574 0.50186 0.52929 0.06705 0.911 1575.599 0.01770
-0.02861 -0.16596 0.50254 0.53001 0.06886 0.889 1575.635 0.01772
-0.02865 -0.16619 0.50322 0.53073 0.07068 0.943 1575.672 0.01775
-0.02869 -0.16641 0.50391 0.53145 0.07249 1.066 1575.709 0.01777
-0.02873 -0.16664 0.50459 0.53217 0.07430 1.039 1575.746 0.01780
-0.02877 -0.16686 0.50527 0.53289 0.07612 0.990 1575.782 0.01782
-0.02881 -0.16709 0.50595 0.53360 0.07793 1.011 1575.819 0.01784
-0.02885 -0.16731 0.50663 0.53432 0.07974 0.925 1575.856 0.01787
-0.02889 -0.16754 0.50731 0.53504 0.08156 0.817 1575.892 0.01789
-0.02893 -0.16776 0.50799 0.53576 0.08337 0.978 1575.929 0.01791
-0.02896 -0.16799 0.50868 0.53648 0.08518 1.144 1575.966 0.01794
-0.02900 -0.16821 0.50936 0.53720 0.08700 0.939 1576.003 0.01796
-0.02904 -0.16844 0.51004 0.53792 0.08881 0.903 1576.039 0.01798
-0.02908 -0.16866 0.51072 0.53864 0.09063 0.978 1576.076 0.01801
-0.02912 -0.16889 0.51140 0.53935 0.09244 1.081 1576.113 0.01803
-0.02916 -0.16911 0.51208 0.54007 0.09426 0.873 1576.149 0.01806
-0.02920 -0.16934 0.51277 0.54079 0.09607 0.981 1576.186 0.01808
-0.02924 -0.16956 0.51345 0.54151 0.09788 0.873 1576.223 0.01810
-0.02927 -0.16979 0.51413 0.54223 0.09970 0.851 1576.260 0.01813
-0.02931 -0.17001 0.51481 0.54295 0.10151 0.809 1576.296 0.01815
-0.02935 -0.17024 0.51549 0.54367 0.10333 0.873 1576.333 0.01817
-0.02939 -0.17046 0.51617 0.54439 0.10514 0.901 1576.370 0.01820
-0.02943 -0.17069 0.51686 0.54511 0.10696 1.015 1576.406 0.01822
-0.02947 -0.17091 0.51754 0.54582 0.10877 0.958 1576.443 0.01825
-0.02951 -0.17114 0.51822 0.54654 0.11059 0.729 1576.480 0.01827
-0.02955 -0.17136 0.51890 0.54726 0.11240 0.865 1576.517 0.01829
-0.02958 -0.17159 0.51958 0.54798 0.11422 0.651 1576.553 0.01832
-0.02962 -0.17181 0.52026 0.54870 0.11603 0.900 1576.590 0.01834
-0.02966 -0.17204 0.52095 0.54942 0.11785 1.007 1576.627 0.01836
-0.02970 -0.17227 0.52163 0.55014 0.11966 1.092 1576.663 0.01839
-0.02974 -0.17249 0.52231 0.55086 0.12148 1.006 1576.700 0.01841
-0.02978 -0.17272 0.52299 0.55158 0.12329 1.034 1576.737 0.01844
-0.02982 -0.17294 0.52367 0.55230 0.12511 0.934 1576.774 0.01846
-0.02986 -0.17317 0.52436 0.55302 0.12692 1.048 1576.810 0.01848
-0.02990 -0.17339 0.52504 0.55374 0.12874 1.047 1576.847 0.01851
-0.02993 -0.17362 0.52572 0.55446 0.13055 1.068 1576.884 0.01853
-0.02997 -0.17384 0.52640 0.55517 0.13237 0.905 1576.920 0.01855
-0.03001 -0.17407 0.52708 0.55589 0.13418 0.940 1576.957 0.01858
-0.03005 -0.17429 0.52777 0.55661 0.13600 1.046 1576.994 0.01860
-0.03009 -0.17452 0.52845 0.55733 0.13782 0.932 1577.031 0.01863
-0.03013 -0.17474 0.52913 0.55805 0.13963 0.910 1577.067 0.01865
-0.03017 -0.17497 0.52981 0.55877 0.14145 0.988 1577.104 0.01867
-0.03021 -0.17519 0.53050 0.55949 0.14326 0.803 1577.141 0.01870
-0.03025 -0.17542 0.53118 0.56021 0.14508 1.058 1577.177 0.01872
-0.03028 -0.17564 0.53186 0.56093 0.14689 0.867 1577.214 0.01874
-0.03032 -0.17587 0.53254 0.56165 0.14871 1.128 1577.251 0.01877
-0.03036 -0.17609 0.53323 0.56237 0.15053 0.937 1577.287 0.01879
-0.03040 -0.17632 0.53391 0.56309 0.15234 1.028 1577.324 0.01881
-0.03044 -0.17655 0.53459 0.56381 0.15416 1.007 1577.361 0.01884
-0.03048 -0.17677 0.53527 0.56453 0.15598 0.865 1577.398 0.01886
-0.03052 -0.17700 0.53595 0.56525 0.15779 1.020 1577.434 0.01889
-0.03056 -0.17722 0.53664 0.56597 0.15961 1.027 1577.471 0.01891
-0.03059 -0.17745 0.53732 0.56669 0.16143 0.849 1577.508 0.01893
-0.03063 -0.17767 0.53800 0.56741 0.16324 0.941 1577.544 0.01896
-0.03067 -0.17790 0.53868 0.56813 0.16506 1.019 1577.581 0.01898
-0.03071 -0.17812 0.53937 0.56885 0.16688 0.997 1577.618 0.01900
-0.03075 -0.17835 0.54005 0.56957 0.16869 0.926 1577.655 0.01903
-0.03079 -0.17857 0.54073 0.57029 0.17051 1.011 1577.691 0.01905
-0.03083 -0.17880 0.54141 0.57101 0.17233 0.911 1577.728 0.01908
-0.03087 -0.17902 0.54210 0.57173 0.17414 0.855 1577.765 0.01910
-0.03091 -0.17925 0.54278 0.57245 0.17596 0.918 1577.801 0.01912
-0.03094 -0.17948 0.54346 0.57317 0.17778 0.938 1577.838 0.01915
-0.03098 -0.17970 0.54415 0.57389 0.17959 0.966 1577.875 0.01917
-0.03102 -0.17993 0.54483 0.57461 0.18141 1.099 1577.912 0.01919
-0.03106 -0.18015 0.54551 0.57533 0.18323 0.824 1577.948 0.01922
-0.03110 -0.18038 0.54619 0.57605 0.18505 1.056 1577.985 0.01924
-0.03114 -0.18060 0.54688 0.57677 0.18686 1.027 1578.022 0.01927
-0.03118 -0.18083 0.54756 0.57749 0.18868 1.104 1578.058 0.01929
-0.03122 -0.18105 0.54824 0.57821 0.19050 0.893 1578.095 0.01931
-0.03126 -0.18128 0.54893 0.57893 0.19232 0.942 1578.132 0.01934
-0.03129 -0.18151 0.54961 0.57965 0.19413 1.075 1578.169 0.01936
-0.03133 -0.18173 0.55029 0.58037 0.19595 1.103 1578.205 0.01938
-0.03137 -0.18196 0.55097 0.58109 0.19777 1.011 1578.242 0.01941
-0.03141 -0.18218 0.55166 0.58181 0.19959 0.913 1578.279 0.01943
-0.03145 -0.18241 0.55234 0.58253 0.20141 0.884 1578.315 0.01946
-0.03149 -0.18263 0.55302 0.58325 0.20322 0.919 1578.352 0.01948
-0.03153 -0.18286 0.55371 0.58397 0.20504 0.982 1578.389 0.01950
-0.03157 -0.18308 0.55439 0.58469 0.20686 1.054 1578.426 0.01953
-0.03161 -0.18331 0.55507 0.58541 0.20868 0.930 1578.462 0.01955
-0.03164 -0.18354 0.55576 0.58613 0.21050 0.837 1578.499 0.01957
-0.03168 -0.18376 0.55644 0.58685 0.21231 1.048 1578.536 0.01960
-0.03172 -0.18399 0.55712 0.58757 0.21413 0.944 1578.572 0.01962
-0.03176 -0.18421 0.55780 0.58829 0.21595 0.999 1578.609 0.01964
-0.03180 -0.18444 0.55849 0.58901 0.21777 0.919 1578.646 0.01967
-0.03184 -0.18466 0.55917 0.58973 0.21959 1.108 1578.683 0.01969
-0.03188 -0.18489 0.55985 0.59046 0.22141 1.072 1578.719 0.01972
-0.03192 -0.18511 0.56054 0.59118 0.22323 0.851 1578.756 0.01974
-0.03196 -0.18534 0.56122 0.59190 0.22504 0.981 1578.793 0.01976
-0.03199 -0.18557 0.56190 0.59262 0.22686 0.940 1578.829 0.01979
-0.03203 -0.18579 0.56259 0.59334 0.22868 1.007 1578.866 0.01981
-0.03207 -0.18602 0.56327 0.59406 0.23050 0.995 1578.903 0.01983
-0.03211 -0.18624 0.56395 0.59478 0.23232 0.933 1578.940 0.01986
-0.03215 -0.18647 0.56464 0.59550 0.23414 0.981 1578.976 0.01988
-0.03219 -0.18669 0.56532 0.59622 0.23596 0.936 1579.013 0.01991
-0.03223 -0.18692 0.56601 0.59694 0.23778 1.024 1579.050 0.01993
-0.03227 -0.18715 0.56669 0.59766 0.23960 0.800 1579.086 0.01995
-0.03231 -0.18737 0.56737 0.59838 0.24142 0.983 1579.123 0.01998
-0.03235 -0.18760 0.56806 0.59910 0.24324 1.058 1579.160 0.02000
-0.03238 -0.18782 0.56874 0.59983 0.24505 0.953 1579.197 0.02002
-0.03242 -0.18805 0.56942 0.60055 0.24687 0.953 1579.233 0.02005
-0.03246 -0.18827 0.57011 0.60127 0.24869 0.966 1579.270 0.02007
-0.03250 -0.18850 0.57079 0.60199 0.25051 0.938 1579.307 0.02010
-0.03254 -0.18873 0.57147 0.60271 0.25233 1.084 1579.343 0.02012
-0.03258 -0.18895 0.57216 0.60343 0.25415 0.944 1579.380 0.02014
-0.03262 -0.18918 0.57284 0.60415 0.25597 0.923 1579.417 0.02017
-0.03266 -0.18940 0.57352 0.60487 0.25779 1.082 1579.454 0.02019
-0.03270 -0.18963 0.57421 0.60559 0.25961 1.019 1579.490 0.02021
-0.03273 -0.18986 0.57489 0.60631 0.26143 1.095 1579.527 0.02024
-0.03277 -0.19008 0.57558 0.60704 0.26325 0.942 1579.564 0.02026
-0.03281 -0.19031 0.57626 0.60776 0.26507 1.108 1579.600 0.02029
-0.03285 -0.19053 0.57694 0.60848 0.26689 0.969 1579.637 0.02031
-0.03289 -0.19076 0.57763 0.60920 0.26871 1.098 1579.674 0.02033
-0.03293 -0.19098 0.57831 0.60992 0.27053 0.897 1579.711 0.02036
-0.03297 -0.19121 0.57900 0.61064 0.27235 0.987 1579.747 0.02038
-0.03301 -0.19144 0.57968 0.61136 0.27417 1.034 1579.784 0.02040
-0.03305 -0.19166 0.58036 0.61209 0.27599 0.714 1579.821 0.02043
-0.03308 -0.19189 0.58105 0.61281 0.27782 1.229 1579.857 0.02045
-0.03312 -0.19211 0.58173 0.61353 0.27964 0.913 1579.894 0.02047
-0.03316 -0.19234 0.58242 0.61425 0.28146 0.945 1579.931 0.02050
-0.03320 -0.19257 0.58310 0.61497 0.28328 0.946 1579.968 0.02052
-0.03324 -0.19279 0.58378 0.61569 0.28510 1.061 1580.004 0.02055
-0.03328 -0.19302 0.58447 0.61641 0.28692 1.089 1580.041 0.02057
-0.03332 -0.19324 0.58515 0.61714 0.28874 0.989 1580.078 0.02059
-0.03336 -0.19347 0.58584 0.61786 0.29056 1.008 1580.114 0.02062
-0.03340 -0.19370 0.58652 0.61858 0.29238 0.849 1580.151 0.02064
-0.03344 -0.19392 0.58720 0.61930 0.29420 0.946 1580.188 0.02066
-0.03347 -0.19415 0.58789 0.62002 0.29602 1.106 1580.225 0.02069
-0.03351 -0.19437 0.58857 0.62074 0.29785 0.936 1580.261 0.02071
-0.03355 -0.19460 0.58926 0.62146 0.29967 0.943 1580.298 0.02074
-0.03359 -0.19483 0.58994 0.62219 0.30149 0.895 1580.335 0.02076
-0.03363 -0.19505 0.59063 0.62291 0.30331 1.128 1580.371 0.02078
-0.03367 -0.19528 0.59131 0.62363 0.30513 0.928 1580.408 0.02081
-0.03371 -0.19550 0.59199 0.62435 0.30695 0.976 1580.445 0.02083
-0.03375 -0.19573 0.59268 0.62507 0.30877 0.914 1580.482 0.02085
-0.03379 -0.19596 0.59336 0.62580 0.31060 1.016 1580.518 0.02088
-0.03383 -0.19618 0.59405 0.62652 0.31242 1.139 1580.555 0.02090
-0.03386 -0.19641 0.59473 0.62724 0.31424 0.961 1580.592 0.02093
-0.03390 -0.19663 0.59542 0.62796 0.31606 0.974 1580.628 0.02095
-0.03394 -0.19686 0.59610 0.62868 0.31788 1.015 1580.665 0.02097
-0.03398 -0.19709 0.59679 0.62941 0.31971 1.014 1580.702 0.02100
-0.03402 -0.19731 0.59747 0.63013 0.32153 0.939 1580.739 0.02102
-0.03406 -0.19754 0.59816 0.63085 0.32335 1.007 1580.775 0.02104
-0.03410 -0.19776 0.59884 0.63157 0.32517 0.904 1580.812 0.02107
-0.03414 -0.19799 0.59952 0.63229 0.32699 0.924 1580.849 0.02109
-0.03418 -0.19822 0.60021 0.63302 0.32882 0.869 1580.885 0.02112
-0.03421 -0.19844 0.60089 0.63374 0.33064 0.937 1580.922 0.02114
-0.03425 -0.19867 0.60158 0.63446 0.33246 0.916 1580.959 0.02116
-0.03429 -0.19889 0.60226 0.63518 0.33428 0.847 1580.996 0.02119
-0.03433 -0.19912 0.60295 0.63590 0.33611 1.004 1581.032 0.02121
-0.03437 -0.19935 0.60363 0.63663 0.33793 0.956 1581.069 0.02123
-0.03441 -0.19957 0.60432 0.63735 0.33975 0.887 1581.106 0.02126
-0.03445 -0.19980 0.60500 0.63807 0.34158 1.023 1581.142 0.02128
-0.03449 -0.20002 0.60569 0.63879 0.34340 1.084 1581.179 0.02130
-0.03453 -0.20025 0.60637 0.63952 0.34522 0.934 1581.216 0.02133
-0.03457 -0.20048 0.60706 0.64024 0.34704 1.105 1581.253 0.02135
-0.03460 -0.20070 0.60774 0.64096 0.34887 0.903 1581.289 0.02138
-0.03464 -0.20093 0.60843 0.64168 0.35069 0.966 1581.326 0.02140
-0.03468 -0.20116 0.60911 0.64240 0.35251 1.005 1581.363 0.02142
-0.03472 -0.20138 0.60980 0.64313 0.35434 0.994 1581.399 0.02145
-0.03476 -0.20161 0.61048 0.64385 0.35616 0.951 1581.436 0.02147
-0.03480 -0.20183 0.61117 0.64457 0.35798 1.030 1581.473 0.02149
-0.03484 -0.20206 0.61185 0.64529 0.35981 1.075 1581.510 0.02152
-0.03488 -0.20229 0.61254 0.64602 0.36163 1.094 1581.546 0.02154
-0.03492 -0.20251 0.61322 0.64674 0.36345 1.081 1581.583 0.02157
-0.03496 -0.20274 0.61391 0.64746 0.36528 0.917 1581.620 0.02159
-0.03499 -0.20297 0.61459 0.64818 0.36710 1.016 1581.656 0.02161
-0.03503 -0.20319 0.61528 0.64891 0.36892 0.943 1581.693 0.02164
-0.03507 -0.20342 0.61596 0.64963 0.37075 0.935 1581.730 0.02166
-0.03511 -0.20364 0.61665 0.65035 0.37257 0.908 1581.767 0.02168
-0.03515 -0.20387 0.61733 0.65108 0.37440 0.934 1581.803 0.02171
-0.03519 -0.20410 0.61802 0.65180 0.37622 1.053 1581.840 0.02173
-0.03523 -0.20432 0.61870 0.65252 0.37804 0.899 1581.877 0.02176
-0.03527 -0.20455 0.61939 0.65324 0.37987 0.992 1581.913 0.02178
-0.03531 -0.20478 0.62007 0.65397 0.38169 1.073 1581.950 0.02180
-0.03535 -0.20500 0.62076 0.65469 0.38352 1.056 1581.987 0.02183
-0.03539 -0.20523 0.62144 0.65541 0.38534 0.900 1582.024 0.02185
-0.03542 -0.20546 0.62213 0.65613 0.38716 1.067 1582.060 0.02187
-0.03546 -0.20568 0.62282 0.65686 0.38899 0.972 1582.097 0.02190
-0.03550 -0.20591 0.62350 0.65758 0.39081 0.884 1582.134 0.02192
-0.03554 -0.20613 0.62419 0.65830 0.39264 0.951 1582.170 0.02195
-0.03558 -0.20636 0.62487 0.65903 0.39446 1.018 1582.207 0.02197
-0.03562 -0.20659 0.62556 0.65975 0.39629 1.106 1582.244 0.02199
-0.03566 -0.20681 0.62624 0.66047 0.39811 0.983 1582.281 0.02202
-0.03570 -0.20704 0.62693 0.66120 0.39994 1.044 1582.317 0.02204
-0.03574 -0.20727 0.62761 0.66192 0.40176 0.949 1582.354 0.02206
-0.03578 -0.20749 0.62830 0.66264 0.40359 1.002 1582.391 0.02209
-0.03581 -0.20772 0.62899 0.66336 0.40541 1.004 1582.427 0.02211
-0.03585 -0.20795 0.62967 0.66409 0.40724 1.079 1582.464 0.02213
-0.03589 -0.20817 0.63036 0.66481 0.40906 0.924 1582.501 0.02216
-0.03593 -0.20840 0.63104 0.66553 0.41089 1.063 1582.538 0.02218
-0.03597 -0.20863 0.63173 0.66626 0.41271 0.974 1582.574 0.02221
-0.03601 -0.20885 0.63241 0.66698 0.41454 0.973 1582.611 0.02223
-0.03605 -0.20908 0.63310 0.66770 0.41636 0.953 1582.648 0.02225
-0.03609 -0.20930 0.63379 0.66843 0.41819 0.982 1582.684 0.02228
-0.03613 -0.20953 0.63447 0.66915 0.42001 1.095 1582.721 0.02230
-0.03617 -0.20976 0.63516 0.66987 0.42184 0.905 1582.758 0.02232
-0.03620 -0.20998 0.63584 0.67060 0.42367 1.031 1582.794 0.02235
-0.03624 -0.21021 0.63653 0.67132 0.42549 0.852 1582.831 0.02237
-0.03628 -0.21044 0.63722 0.67204 0.42732 1.160 1582.868 0.02240
-0.03632 -0.21066 0.63790 0.67277 0.42914 0.914 1582.905 0.02242
-0.03636 -0.21089 0.63859 0.67349 0.43097 1.009 1582.941 0.02244
-0.03640 -0.21112 0.63927 0.67421 0.43279 0.929 1582.978 0.02247
-0.03644 -0.21134 0.63996 0.67494 0.43462 0.881 1583.015 0.02249
-0.03648 -0.21157 0.64065 0.67566 0.43645 0.856 1583.051 0.02251
-0.03652 -0.21180 0.64133 0.67639 0.43827 1.046 1583.088 0.02254
-0.03656 -0.21202 0.64202 0.67711 0.44010 0.946 1583.125 0.02256
-0.03660 -0.21225 0.64270 0.67783 0.44192 0.884 1583.162 0.02259
-0.03663 -0.21248 0.64339 0.67856 0.44375 0.921 1583.198 0.02261
-0.03667 -0.21270 0.64408 0.67928 0.44558 1.006 1583.235 0.02263
-0.03671 -0.21293 0.64476 0.68000 0.44740 1.005 1583.272 0.02266
-0.03675 -0.21316 0.64545 0.68073 0.44923 1.064 1583.308 0.02268
-0.03679 -0.21338 0.64613 0.68145 0.45106 0.818 1583.345 0.02270
-0.03683 -0.21361 0.64682 0.68217 0.45288 0.811 1583.382 0.02273
-0.03687 -0.21384 0.64751 0.68290 0.45471 0.977 1583.419 0.02275
-0.03691 -0.21406 0.64819 0.68362 0.45654 1.049 1583.455 0.02278
-0.03695 -0.21429 0.64888 0.68435 0.45836 1.069 1583.492 0.02280
-0.03699 -0.21452 0.64957 0.68507 0.46019 1.247 1583.529 0.02282
-0.03703 -0.21474 0.65025 0.68579 0.46202 1.121 1583.565 0.02285
-0.03706 -0.21497 0.65094 0.68652 0.46384 0.988 1583.602 0.02287
-0.03710 -0.21520 0.65163 0.68724 0.46567 1.007 1583.639 0.02289
-0.03714 -0.21542 0.65231 0.68797 0.46750 0.920 1583.676 0.02292
-0.03718 -0.21565 0.65300 0.68869 0.46933 0.821 1583.712 0.02294
-0.03722 -0.21588 0.65368 0.68941 0.47115 0.992 1583.749 0.02296
-0.03726 -0.21610 0.65437 0.69014 0.47298 0.906 1583.786 0.02299
-0.03730 -0.21633 0.65506 0.69086 0.47481 0.939 1583.822 0.02301
-0.03734 -0.21656 0.65574 0.69159 0.47663 0.991 1583.859 0.02304
-0.03738 -0.21678 0.65643 0.69231 0.47846 0.984 1583.896 0.02306
-0.03742 -0.21701 0.65712 0.69303 0.48029 1.043 1583.933 0.02308
-0.03746 -0.21724 0.65780 0.69376 0.48212 0.944 1583.969 0.02311
-0.03749 -0.21746 0.65849 0.69448 0.48395 1.082 1584.006 0.02313
-0.03753 -0.21769 0.65918 0.69521 0.48577 0.943 1584.043 0.02315
-0.03757 -0.21792 0.65986 0.69593 0.48760 1.002 1584.079 0.02318
-0.03761 -0.21814 0.66055 0.69666 0.48943 0.771 1584.116 0.02320
-0.03765 -0.21837 0.66124 0.69738 0.49126 0.902 1584.153 0.02323
-0.03769 -0.21860 0.66192 0.69810 0.49308 0.902 1584.190 0.02325
-0.03773 -0.21882 0.66261 0.69883 0.49491 0.934 1584.226 0.02327
-0.03777 -0.21905 0.66330 0.69955 0.49674 0.940 1584.263 0.02330
-0.03781 -0.21928 0.66399 0.70028 0.49857 0.914 1584.300 0.02332
-0.03785 -0.21950 0.66467 0.70100 0.50040 0.874 1584.336 0.02334
-0.03789 -0.21973 0.66536 0.70173 0.50223 0.965 1584.373 0.02337
-0.03792 -0.21996 0.66605 0.70245 0.50405 1.136 1584.410 0.02339
-0.03796 -0.22018 0.66673 0.70318 0.50588 1.017 1584.447 0.02342
-0.03800 -0.22041 0.66742 0.70390 0.50771 0.879 1584.483 0.02344
-0.03804 -0.22064 0.66811 0.70462 0.50954 0.742 1584.520 0.02346
-0.03808 -0.22087 0.66879 0.70535 0.51137 0.868 1584.557 0.02349
-0.03812 -0.22109 0.66948 0.70607 0.51320 0.976 1584.593 0.02351
-0.03816 -0.22132 0.67017 0.70680 0.51503 1.044 1584.630 0.02353
-0.03820 -0.22155 0.67085 0.70752 0.51685 0.955 1584.667 0.02356
-0.03824 -0.22177 0.67154 0.70825 0.51868 0.994 1584.704 0.02358
-0.03828 -0.22200 0.67223 0.70897 0.52051 0.856 1584.740 0.02361
-0.03832 -0.22223 0.67292 0.70970 0.52234 0.983 1584.777 0.02363
-0.03835 -0.22245 0.67360 0.71042 0.52417 0.894 1584.814 0.02365
-0.03839 -0.22268 0.67429 0.71115 0.52600 1.050 1584.850 0.02368
-0.03843 -0.22291 0.67498 0.71187 0.52783 0.903 1584.887 0.02370
-0.03847 -0.22313 0.67567 0.71260 0.52966 0.893 1584.924 0.02372
-0.03851 -0.22336 0.67635 0.71332 0.53149 0.863 1584.961 0.02375
-0.03855 -0.22359 0.67704 0.71405 0.53332 0.726 1584.997 0.02377
-0.03859 -0.22382 0.67773 0.71477 0.53515 0.687 1585.034 0.02379
-0.03863 -0.22404 0.67841 0.71550 0.53697 0.949 1585.071 0.02382
-0.03867 -0.22427 0.67910 0.71622 0.53880 0.871 1585.107 0.02384
-0.03871 -0.22450 0.67979 0.71695 0.54063 0.851 1585.144 0.02387
-0.03875 -0.22472 0.68048 0.71767 0.54246 0.909 1585.181 0.02389
-0.03879 -0.22495 0.68116 0.71840 0.54429 1.025 1585.218 0.02391
-0.03882 -0.22518 0.68185 0.71912 0.54612 0.791 1585.254 0.02394
-0.03886 -0.22540 0.68254 0.71985 0.54795 0.791 1585.291 0.02396
-0.03890 -0.22563 0.68323 0.72057 0.54978 0.965 1585.328 0.02398
-0.03894 -0.22586 0.68391 0.72130 0.55161 0.751 1585.364 0.02401
-0.03898 -0.22609 0.68460 0.72202 0.55344 0.858 1585.401 0.02403
-0.03902 -0.22631 0.68529 0.72275 0.55527 1.138 1585.438 0.02406
