x y z dist_scaled dist_frac flux_norm sig_norm wavelength redshift
0.06759 0.26132 0.42408 0.50270 0.00000 0.720 0.106 1574.239 0.01682
0.06769 0.26169 0.42469 0.50342 0.00181 0.953 0.106 1574.276 0.01685
0.06779 0.26207 0.42529 0.50413 0.00362 0.773 0.102 1574.312 0.01687
0.06788 0.26244 0.42590 0.50485 0.00543 1.006 0.108 1574.349 0.01689
0.06798 0.26281 0.42651 0.50557 0.00724 0.773 0.102 1574.386 0.01692
0.06808 0.26319 0.42711 0.50629 0.00906 0.784 0.110 1574.422 0.01694
0.06817 0.26356 0.42772 0.50700 0.01087 0.783 0.110 1574.459 0.01696
0.06827 0.26393 0.42832 0.50772 0.01268 0.890 0.103 1574.496 0.01699
0.06837 0.26431 0.42893 0.50844 0.01449 0.933 0.105 1574.533 0.01701
0.06846 0.26468 0.42953 0.50916 0.01630 0.976 0.107 1574.569 0.01704
0.06856 0.26505 0.43014 0.50988 0.01811 0.880 0.102 1574.606 0.01706
0.06866 0.26543 0.43075 0.51059 0.01992 1.062 0.111 1574.643 0.01708
0.06875 0.26580 0.43135 0.51131 0.02174 0.892 0.109 1574.680 0.01711
0.06885 0.26617 0.43196 0.51203 0.02355 0.988 0.114 1574.716 0.01713
0.06895 0.26655 0.43256 0.51275 0.02536 1.128 0.115 1574.753 0.01715
0.06904 0.26692 0.43317 0.51347 0.02717 1.033 0.110 1574.790 0.01718
0.06914 0.26729 0.43377 0.51418 0.02898 1.107 0.108 1574.826 0.01720
0.06924 0.26767 0.43438 0.51490 0.03080 1.140 0.109 1574.863 0.01723
0.06933 0.26804 0.43499 0.51562 0.03261 1.162 0.110 1574.900 0.01725
0.06943 0.26841 0.43559 0.51634 0.03442 0.938 0.105 1574.937 0.01727
0.06953 0.26879 0.43620 0.51706 0.03623 1.024 0.104 1574.973 0.01730
0.06962 0.26916 0.43680 0.51778 0.03804 0.927 0.111 1575.010 0.01732
0.06972 0.26953 0.43741 0.51849 0.03986 0.852 0.107 1575.047 0.01734
0.06981 0.26991 0.43802 0.51921 0.04167 0.906 0.117 1575.083 0.01737
0.06991 0.27028 0.43862 0.51993 0.04348 0.875 0.109 1575.120 0.01739
0.07001 0.27065 0.43923 0.52065 0.04529 1.003 0.109 1575.157 0.01742
0.07010 0.27103 0.43983 0.52137 0.04711 0.822 0.106 1575.194 0.01744
0.07020 0.27140 0.44044 0.52209 0.04892 0.908 0.104 1575.230 0.01746
0.07030 0.27177 0.44105 0.52280 0.05073 1.100 0.114 1575.267 0.01749
0.07039 0.27215 0.44165 0.52352 0.05254 0.972 0.108 1575.304 0.01751
0.07049 0.27252 0.44226 0.52424 0.05436 0.976 0.108 1575.340 0.01753
0.07059 0.27289 0.44286 0.52496 0.05617 0.735 0.107 1575.377 0.01756
0.07068 0.27327 0.44347 0.52568 0.05798 1.061 0.111 1575.414 0.01758
0.07078 0.27364 0.44408 0.52640 0.05980 0.854 0.115 1575.451 0.01760
0.07088 0.27401 0.44468 0.52711 0.06161 0.945 0.106 1575.487 0.01763
0.07097 0.27439 0.44529 0.52783 0.06342 1.074 0.106 1575.524 0.01765
0.07107 0.27476 0.44589 0.52855 0.06524 1.053 0.112 1575.561 0.01768
0.07117 0.27513 0.44650 0.52927 0.06705 0.872 0.109 1575.598 0.01770
0.07126 0.27551 0.44711 0.52999 0.06886 0.916 0.112 1575.634 0.01772
0.07136 0.27588 0.44771 0.53071 0.07068 1.009 0.110 1575.671 0.01775
0.07146 0.27626 0.44832 0.53143 0.07249 0.982 0.108 1575.708 0.01777
0.07155 0.27663 0.44893 0.53214 0.07430 0.860 0.109 1575.744 0.01779
0.07165 0.27700 0.44953 0.53286 0.07612 1.021 0.104 1575.781 0.01782
0.07175 0.27738 0.45014 0.53358 0.07793 1.165 0.111 1575.818 0.01784
0.07184 0.27775 0.45075 0.53430 0.07974 1.021 0.110 1575.855 0.01787
0.07194 0.27812 0.45135 0.53502 0.08156 0.949 0.113 1575.891 0.01789
0.07204 0.27850 0.45196 0.53574 0.08337 0.985 0.108 1575.928 0.01791
0.07213 0.27887 0.45256 0.53646 0.08518 0.886 0.110 1575.965 0.01794
0.07223 0.27924 0.45317 0.53718 0.08700 0.892 0.103 1576.001 0.01796
0.07233 0.27962 0.45378 0.53790 0.08881 1.027 0.111 1576.038 0.01798
0.07242 0.27999 0.45438 0.53861 0.09063 0.972 0.108 1576.075 0.01801
0.07252 0.28037 0.45499 0.53933 0.09244 0.854 0.108 1576.112 0.01803
0.07262 0.28074 0.45560 0.54005 0.09426 1.070 0.107 1576.148 0.01806
0.07271 0.28111 0.45620 0.54077 0.09607 1.135 0.110 1576.185 0.01808
0.07281 0.28149 0.45681 0.54149 0.09788 0.931 0.106 1576.222 0.01810
0.07291 0.28186 0.45742 0.54221 0.09970 1.083 0.107 1576.259 0.01813
0.07300 0.28223 0.45802 0.54293 0.10151 0.867 0.109 1576.295 0.01815
0.07310 0.28261 0.45863 0.54365 0.10333 0.997 0.109 1576.332 0.01817
0.07320 0.28298 0.45924 0.54437 0.10514 1.041 0.112 1576.369 0.01820
0.07329 0.28336 0.45984 0.54509 0.10696 0.900 0.111 1576.405 0.01822
0.07339 0.28373 0.46045 0.54581 0.10877 1.053 0.106 1576.442 0.01825
0.07349 0.28410 0.46106 0.54652 0.11059 1.031 0.111 1576.479 0.01827
0.07358 0.28448 0.46166 0.54724 0.11240 0.847 0.114 1576.516 0.01829
0.07368 0.28485 0.46227 0.54796 0.11422 0.988 0.103 1576.552 0.01832
0.07378 0.28523 0.46288 0.54868 0.11603 0.956 0.107 1576.589 0.01834
0.07387 0.28560 0.46348 0.54940 0.11785 0.957 0.114 1576.626 0.01836
0.07397 0.28597 0.46409 0.55012 0.11966 0.795 0.111 1576.662 0.01839
0.07407 0.28635 0.46470 0.55084 0.12148 0.691 0.105 1576.699 0.01841
0.07416 0.28672 0.46530 0.55156 0.12329 1.088 0.114 1576.736 0.01843
0.07426 0.28710 0.46591 0.55228 0.12511 1.011 0.110 1576.773 0.01846
0.07436 0.28747 0.46652 0.55300 0.12692 1.164 0.111 1576.809 0.01848
0.07445 0.28784 0.46713 0.55372 0.12874 0.990 0.109 1576.846 0.01851
0.07455 0.28822 0.46773 0.55444 0.13055 0.719 0.107 1576.883 0.01853
0.07465 0.28859 0.46834 0.55516 0.13237 0.871 0.109 1576.919 0.01855
0.07474 0.28897 0.46895 0.55588 0.13418 1.013 0.110 1576.956 0.01858
0.07484 0.28934 0.46955 0.55660 0.13600 1.133 0.116 1576.993 0.01860
0.07494 0.28971 0.47016 0.55732 0.13782 0.839 0.114 1577.030 0.01862
0.07504 0.29009 0.47077 0.55804 0.13963 1.068 0.107 1577.066 0.01865
0.07513 0.29046 0.47138 0.55876 0.14145 1.057 0.113 1577.103 0.01867
0.07523 0.29084 0.47198 0.55948 0.14326 1.025 0.111 1577.140 0.01870
0.07533 0.29121 0.47259 0.56019 0.14508 1.091 0.108 1577.177 0.01872
0.07542 0.29158 0.47320 0.56091 0.14689 1.026 0.111 1577.213 0.01874
0.07552 0.29196 0.47380 0.56163 0.14871 1.167 0.112 1577.250 0.01877
0.07562 0.29233 0.47441 0.56235 0.15053 0.776 0.104 1577.287 0.01879
0.07571 0.29271 0.47502 0.56307 0.15234 0.961 0.108 1577.323 0.01881
0.07581 0.29308 0.47563 0.56379 0.15416 0.885 0.110 1577.360 0.01884
0.07591 0.29346 0.47623 0.56451 0.15598 1.126 0.110 1577.397 0.01886
0.07600 0.29383 0.47684 0.56523 0.15779 0.995 0.110 1577.434 0.01889
0.07610 0.29420 0.47745 0.56595 0.15961 0.929 0.113 1577.470 0.01891
0.07620 0.29458 0.47805 0.56667 0.16143 1.006 0.110 1577.507 0.01893
0.07629 0.29495 0.47866 0.56739 0.16324 0.864 0.109 1577.544 0.01896
0.07639 0.29533 0.47927 0.56811 0.16506 0.952 0.107 1577.580 0.01898
0.07649 0.29570 0.47988 0.56883 0.16688 0.974 0.109 1577.617 0.01900
0.07658 0.29608 0.48048 0.56955 0.16869 0.963 0.108 1577.654 0.01903
0.07668 0.29645 0.48109 0.57027 0.17051 0.942 0.107 1577.691 0.01905
0.07678 0.29682 0.48170 0.57099 0.17233 1.129 0.116 1577.727 0.01908
0.07687 0.29720 0.48231 0.57171 0.17414 1.041 0.112 1577.764 0.01910
0.07697 0.29757 0.48291 0.57243 0.17596 0.822 0.107 1577.801 0.01912
0.07707 0.29795 0.48352 0.57315 0.17778 0.856 0.109 1577.837 0.01915
0.07716 0.29832 0.48413 0.57387 0.17959 0.845 0.108 1577.874 0.01917
0.07726 0.29870 0.48474 0.57459 0.18141 0.922 0.106 1577.911 0.01919
0.07736 0.29907 0.48534 0.57531 0.18323 0.747 0.110 1577.948 0.01922
0.07746 0.29944 0.48595 0.57603 0.18505 0.616 0.101 1577.984 0.01924
0.07755 0.29982 0.48656 0.57675 0.18686 0.452 0.090 1578.021 0.01927
0.07765 0.30019 0.48717 0.57748 0.18868 0.419 0.088 1578.058 0.01929
0.07775 0.30057 0.48777 0.57820 0.19050 0.386 0.085 1578.095 0.01931
0.07784 0.30094 0.48838 0.57892 0.19232 0.386 0.085 1578.131 0.01934
0.07794 0.30132 0.48899 0.57964 0.19413 0.529 0.096 1578.168 0.01936
0.07804 0.30169 0.48960 0.58036 0.19595 0.748 0.110 1578.205 0.01938
0.07813 0.30207 0.49021 0.58108 0.19777 0.652 0.104 1578.241 0.01941
0.07823 0.30244 0.49081 0.58180 0.19959 0.850 0.109 1578.278 0.01943
0.07833 0.30281 0.49142 0.58252 0.20141 1.032 0.112 1578.315 0.01945
0.07842 0.30319 0.49203 0.58324 0.20322 0.945 0.107 1578.352 0.01948
0.07852 0.30356 0.49264 0.58396 0.20504 0.930 0.114 1578.388 0.01950
0.07862 0.30394 0.49324 0.58468 0.20686 0.916 0.119 1578.425 0.01953
0.07871 0.30431 0.49385 0.58540 0.20868 0.882 0.111 1578.462 0.01955
0.07881 0.30469 0.49446 0.58612 0.21050 0.891 0.111 1578.498 0.01957
0.07891 0.30506 0.49507 0.58684 0.21231 1.049 0.113 1578.535 0.01960
0.07901 0.30544 0.49568 0.58756 0.21413 1.001 0.111 1578.572 0.01962
0.07910 0.30581 0.49628 0.58828 0.21595 0.847 0.116 1578.609 0.01964
0.07920 0.30619 0.49689 0.58900 0.21777 1.067 0.114 1578.645 0.01967
0.07930 0.30656 0.49750 0.58972 0.21959 1.234 0.122 1578.682 0.01969
0.07939 0.30694 0.49811 0.59044 0.22141 0.783 0.113 1578.719 0.01972
0.07949 0.30731 0.49872 0.59117 0.22323 0.903 0.112 1578.755 0.01974
0.07959 0.30768 0.49932 0.59189 0.22504 0.701 0.100 1578.792 0.01976
0.07968 0.30806 0.49993 0.59261 0.22686 0.839 0.115 1578.829 0.01979
0.07978 0.30843 0.50054 0.59333 0.22868 0.809 0.114 1578.866 0.01981
0.07988 0.30881 0.50115 0.59405 0.23050 0.922 0.106 1578.902 0.01983
0.07997 0.30918 0.50176 0.59477 0.23232 0.745 0.110 1578.939 0.01986
0.08007 0.30956 0.50237 0.59549 0.23414 0.623 0.102 1578.976 0.01988
0.08017 0.30993 0.50297 0.59621 0.23596 0.545 0.097 1579.013 0.01991
0.08027 0.31031 0.50358 0.59693 0.23778 0.468 0.092 1579.049 0.01993
0.08036 0.31068 0.50419 0.59765 0.23960 0.424 0.089 1579.086 0.01995
0.08046 0.31106 0.50480 0.59837 0.24142 0.401 0.087 1579.123 0.01998
0.08056 0.31143 0.50541 0.59910 0.24323 0.490 0.094 1579.159 0.02000
0.08065 0.31181 0.50602 0.59982 0.24505 0.689 0.107 1579.196 0.02002
0.08075 0.31218 0.50662 0.60054 0.24687 0.534 0.097 1579.233 0.02005
0.08085 0.31256 0.50723 0.60126 0.24869 0.479 0.093 1579.270 0.02007
0.08094 0.31293 0.50784 0.60198 0.25051 0.801 0.106 1579.306 0.02010
0.08104 0.31331 0.50845 0.60270 0.25233 1.003 0.118 1579.343 0.02012
0.08114 0.31368 0.50906 0.60342 0.25415 0.949 0.108 1579.380 0.02014
0.08124 0.31406 0.50967 0.60414 0.25597 0.938 0.115 1579.416 0.02017
0.08133 0.31443 0.51027 0.60486 0.25779 0.792 0.106 1579.453 0.02019
0.08143 0.31481 0.51088 0.60559 0.25961 0.936 0.114 1579.490 0.02021
0.08153 0.31518 0.51149 0.60631 0.26143 0.892 0.119 1579.527 0.02024
0.08162 0.31556 0.51210 0.60703 0.26325 1.004 0.112 1579.563 0.02026
0.08172 0.31593 0.51271 0.60775 0.26507 1.076 0.109 1579.600 0.02028
0.08182 0.31631 0.51332 0.60847 0.26689 1.020 0.119 1579.637 0.02031
0.08191 0.31668 0.51392 0.60919 0.26871 0.912 0.106 1579.674 0.02033
0.08201 0.31706 0.51453 0.60991 0.27053 0.981 0.117 1579.710 0.02036
0.08211 0.31743 0.51514 0.61064 0.27235 0.851 0.117 1579.747 0.02038
0.08221 0.31781 0.51575 0.61136 0.27417 0.999 0.118 1579.784 0.02040
0.08230 0.31818 0.51636 0.61208 0.27599 1.010 0.118 1579.820 0.02043
0.08240 0.31856 0.51697 0.61280 0.27782 0.859 0.110 1579.857 0.02045
0.08250 0.31893 0.51758 0.61352 0.27964 0.998 0.118 1579.894 0.02047
0.08259 0.31931 0.51819 0.61424 0.28146 1.191 0.114 1579.931 0.02050
0.08269 0.31968 0.51879 0.61496 0.28328 1.010 0.118 1579.967 0.02052
0.08279 0.32006 0.51940 0.61569 0.28510 0.908 0.114 1580.004 0.02055
0.08288 0.32043 0.52001 0.61641 0.28692 0.959 0.116 1580.041 0.02057
0.08298 0.32081 0.52062 0.61713 0.28874 1.157 0.113 1580.077 0.02059
0.08308 0.32118 0.52123 0.61785 0.29056 1.048 0.114 1580.114 0.02062
0.08318 0.32156 0.52184 0.61857 0.29238 0.807 0.114 1580.151 0.02064
0.08327 0.32193 0.52245 0.61930 0.29420 1.141 0.112 1580.188 0.02066
0.08337 0.32231 0.52306 0.62002 0.29602 0.817 0.115 1580.224 0.02069
0.08347 0.32268 0.52367 0.62074 0.29785 0.806 0.114 1580.261 0.02071
0.08356 0.32306 0.52427 0.62146 0.29967 0.526 0.097 1580.298 0.02074
0.08366 0.32343 0.52488 0.62218 0.30149 0.269 0.076 1580.334 0.02076
0.08376 0.32381 0.52549 0.62290 0.30331 0.336 0.082 1580.371 0.02078
0.08385 0.32418 0.52610 0.62363 0.30513 0.314 0.081 1580.408 0.02081
0.08395 0.32456 0.52671 0.62435 0.30695 0.247 0.074 1580.445 0.02083
0.08405 0.32494 0.52732 0.62507 0.30877 0.202 0.069 1580.481 0.02085
0.08415 0.32531 0.52793 0.62579 0.31060 0.404 0.088 1580.518 0.02088
0.08424 0.32569 0.52854 0.62651 0.31242 0.382 0.086 1580.555 0.02090
0.08434 0.32606 0.52915 0.62724 0.31424 0.641 0.105 1580.592 0.02093
0.08444 0.32644 0.52976 0.62796 0.31606 0.664 0.106 1580.628 0.02095
0.08453 0.32681 0.53036 0.62868 0.31788 0.799 0.114 1580.665 0.02097
0.08463 0.32719 0.53097 0.62940 0.31971 1.103 0.117 1580.702 0.02100
0.08473 0.32756 0.53158 0.63012 0.32153 1.001 0.111 1580.738 0.02102
0.08483 0.32794 0.53219 0.63085 0.32335 1.036 0.120 1580.775 0.02104
0.08492 0.32831 0.53280 0.63157 0.32517 0.934 0.108 1580.812 0.02107
0.08502 0.32869 0.53341 0.63229 0.32699 0.822 0.109 1580.849 0.02109
0.08512 0.32906 0.53402 0.63301 0.32882 0.947 0.122 1580.885 0.02112
0.08521 0.32944 0.53463 0.63374 0.33064 0.879 0.112 1580.922 0.02114
0.08531 0.32982 0.53524 0.63446 0.33246 1.071 0.122 1580.959 0.02116
0.08541 0.33019 0.53585 0.63518 0.33428 0.869 0.111 1580.995 0.02119
0.08551 0.33057 0.53646 0.63590 0.33611 1.219 0.116 1581.032 0.02121
0.08560 0.33094 0.53707 0.63662 0.33793 0.971 0.111 1581.069 0.02123
0.08570 0.33132 0.53768 0.63735 0.33975 0.926 0.115 1581.106 0.02126
0.08580 0.33169 0.53829 0.63807 0.34157 1.221 0.123 1581.142 0.02128
0.08589 0.33207 0.53889 0.63879 0.34340 0.905 0.120 1581.179 0.02130
0.08599 0.33244 0.53950 0.63951 0.34522 1.291 0.120 1581.216 0.02133
0.08609 0.33282 0.54011 0.64024 0.34704 0.964 0.110 1581.252 0.02135
0.08619 0.33319 0.54072 0.64096 0.34887 0.840 0.121 1581.289 0.02138
0.08628 0.33357 0.54133 0.64168 0.35069 0.976 0.158 1581.326 0.02140
0.08638 0.33395 0.54194 0.64240 0.35251 1.028 0.161 1581.363 0.02142
0.08648 0.33432 0.54255 0.64313 0.35434 1.147 0.168 1581.399 0.02145
0.08657 0.33470 0.54316 0.64385 0.35616 0.926 0.155 1581.436 0.02147
0.08667 0.33507 0.54377 0.64457 0.35798 0.995 0.159 1581.473 0.02149
0.08677 0.33545 0.54438 0.64529 0.35981 1.285 0.177 1581.510 0.02152
0.08687 0.33582 0.54499 0.64602 0.36163 1.115 0.167 1581.546 0.02154
0.08696 0.33620 0.54560 0.64674 0.36345 0.809 0.147 1581.583 0.02157
0.08706 0.33658 0.54621 0.64746 0.36528 0.911 0.154 1581.620 0.02159
0.08716 0.33695 0.54682 0.64819 0.36710 0.877 0.152 1581.656 0.02161
0.08725 0.33733 0.54743 0.64891 0.36892 0.809 0.147 1581.693 0.02164
0.08735 0.33770 0.54804 0.64963 0.37075 0.826 0.149 1581.730 0.02166
0.08745 0.33808 0.54865 0.65035 0.37257 0.792 0.146 1581.767 0.02168
0.08755 0.33845 0.54926 0.65108 0.37440 0.962 0.157 1581.803 0.02171
0.08764 0.33883 0.54987 0.65180 0.37622 0.963 0.158 1581.840 0.02173
0.08774 0.33921 0.55048 0.65252 0.37804 1.134 0.157 1581.877 0.02176
0.08784 0.33958 0.55109 0.65325 0.37987 0.998 0.160 1581.913 0.02178
0.08793 0.33996 0.55170 0.65397 0.38169 0.862 0.151 1581.950 0.02180
0.08803 0.34033 0.55231 0.65469 0.38352 0.930 0.156 1581.987 0.02183
0.08813 0.34071 0.55292 0.65541 0.38534 0.948 0.157 1582.024 0.02185
0.08823 0.34108 0.55353 0.65614 0.38716 1.033 0.162 1582.060 0.02187
0.08832 0.34146 0.55414 0.65686 0.38899 0.828 0.149 1582.097 0.02190
0.08842 0.34184 0.55475 0.65758 0.39081 1.000 0.160 1582.134 0.02192
0.08852 0.34221 0.55536 0.65831 0.39264 0.847 0.150 1582.171 0.02195
0.08862 0.34259 0.55597 0.65903 0.39446 1.121 0.168 1582.207 0.02197
0.08871 0.34296 0.55658 0.65975 0.39629 1.035 0.163 1582.244 0.02199
0.08881 0.34334 0.55719 0.66048 0.39811 0.847 0.150 1582.281 0.02202
0.08891 0.34372 0.55780 0.66120 0.39994 1.157 0.170 1582.317 0.02204
0.08900 0.34409 0.55841 0.66192 0.40176 0.729 0.142 1582.354 0.02206
0.08910 0.34447 0.55902 0.66265 0.40359 1.072 0.165 1582.391 0.02209
0.08920 0.34484 0.55963 0.66337 0.40541 0.848 0.151 1582.428 0.02211
0.08930 0.34522 0.56024 0.66409 0.40724 0.917 0.155 1582.464 0.02213
0.08939 0.34560 0.56085 0.66482 0.40906 1.107 0.167 1582.501 0.02216
0.08949 0.34597 0.56146 0.66554 0.41089 0.833 0.149 1582.538 0.02218
0.08959 0.34635 0.56207 0.66626 0.41271 0.747 0.144 1582.574 0.02221
0.08969 0.34672 0.56268 0.66699 0.41454 0.953 0.158 1582.611 0.02223
0.08978 0.34710 0.56329 0.66771 0.41636 1.005 0.161 1582.648 0.02225
0.08988 0.34748 0.56390 0.66843 0.41819 0.988 0.160 1582.685 0.02228
0.08998 0.34785 0.56451 0.66916 0.42001 1.074 0.166 1582.721 0.02230
0.09007 0.34823 0.56512 0.66988 0.42184 0.833 0.150 1582.758 0.02232
0.09017 0.34860 0.56573 0.67060 0.42366 0.868 0.152 1582.795 0.02235
0.09027 0.34898 0.56634 0.67133 0.42549 1.075 0.166 1582.831 0.02237
0.09037 0.34936 0.56695 0.67205 0.42732 0.973 0.159 1582.868 0.02240
0.09046 0.34973 0.56756 0.67277 0.42914 0.974 0.159 1582.905 0.02242
0.09056 0.35011 0.56817 0.67350 0.43097 1.043 0.164 1582.942 0.02244
0.09066 0.35049 0.56878 0.67422 0.43279 0.715 0.142 1582.978 0.02247
0.09076 0.35086 0.56939 0.67494 0.43462 0.974 0.159 1583.015 0.02249
0.09085 0.35124 0.57000 0.67567 0.43645 1.095 0.167 1583.052 0.02251
0.09095 0.35161 0.57062 0.67639 0.43827 0.905 0.155 1583.089 0.02254
0.09105 0.35199 0.57123 0.67712 0.44010 1.216 0.174 1583.125 0.02256
0.09114 0.35237 0.57184 0.67784 0.44192 1.008 0.162 1583.162 0.02259
0.09124 0.35274 0.57245 0.67856 0.44375 1.060 0.165 1583.199 0.02261
0.09134 0.35312 0.57306 0.67929 0.44558 1.096 0.167 1583.235 0.02263
0.09144 0.35350 0.57367 0.68001 0.44740 1.130 0.170 1583.272 0.02266
0.09153 0.35387 0.57428 0.68073 0.44923 0.871 0.153 1583.309 0.02268
0.09163 0.35425 0.57489 0.68146 0.45106 0.958 0.159 1583.346 0.02270
0.09173 0.35462 0.57550 0.68218 0.45288 1.061 0.165 1583.382 0.02273
0.09183 0.35500 0.57611 0.68291 0.45471 0.803 0.148 1583.419 0.02275
0.09192 0.35538 0.57672 0.68363 0.45654 1.010 0.162 1583.456 0.02278
0.09202 0.35575 0.57733 0.68435 0.45836 0.993 0.161 1583.492 0.02280
0.09212 0.35613 0.57794 0.68508 0.46019 0.942 0.158 1583.529 0.02282
0.09222 0.35651 0.57855 0.68580 0.46202 1.029 0.152 1583.566 0.02285
0.09231 0.35688 0.57916 0.68653 0.46384 0.769 0.146 1583.603 0.02287
0.09241 0.35726 0.57978 0.68725 0.46567 1.030 0.164 1583.639 0.02289
0.09251 0.35764 0.58039 0.68797 0.46750 1.047 0.165 1583.676 0.02292
0.09260 0.35801 0.58100 0.68870 0.46933 0.838 0.151 1583.713 0.02294
0.09270 0.35839 0.58161 0.68942 0.47115 1.115 0.158 1583.749 0.02297
0.09280 0.35876 0.58222 0.69015 0.47298 1.046 0.165 1583.786 0.02299
0.09290 0.35914 0.58283 0.69087 0.47481 0.942 0.158 1583.823 0.02301
0.09299 0.35952 0.58344 0.69160 0.47663 1.238 0.176 1583.860 0.02304
0.09309 0.35989 0.58405 0.69232 0.47846 0.752 0.145 1583.896 0.02306
0.09319 0.36027 0.58466 0.69304 0.48029 0.804 0.149 1583.933 0.02308
0.09329 0.36065 0.58527 0.69377 0.48212 1.218 0.164 1583.970 0.02311
0.09338 0.36102 0.58589 0.69449 0.48394 0.872 0.154 1584.007 0.02313
0.09348 0.36140 0.58650 0.69522 0.48577 0.845 0.152 1584.043 0.02315
0.09358 0.36178 0.58711 0.69594 0.48760 1.131 0.171 1584.080 0.02318
0.09368 0.36215 0.58772 0.69667 0.48943 1.063 0.167 1584.117 0.02320
0.09377 0.36253 0.58833 0.69739 0.49126 0.996 0.162 1584.153 0.02323
0.09387 0.36291 0.58894 0.69811 0.49308 0.909 0.155 1584.190 0.02325
0.09397 0.36328 0.58955 0.69884 0.49491 0.893 0.157 1584.227 0.02327
0.09407 0.36366 0.59016 0.69956 0.49674 0.757 0.146 1584.264 0.02330
0.09416 0.36404 0.59077 0.70029 0.49857 1.092 0.169 1584.300 0.02332
0.09426 0.36441 0.59139 0.70101 0.50040 0.803 0.150 1584.337 0.02334
0.09436 0.36479 0.59200 0.70174 0.50222 0.825 0.151 1584.374 0.02337
0.09446 0.36517 0.59261 0.70246 0.50405 1.131 0.159 1584.410 0.02339
0.09455 0.36554 0.59322 0.70319 0.50588 0.837 0.151 1584.447 0.02342
0.09465 0.36592 0.59383 0.70391 0.50771 0.948 0.160 1584.484 0.02344
0.09475 0.36630 0.59444 0.70464 0.50954 0.809 0.150 1584.521 0.02346
0.09485 0.36667 0.59505 0.70536 0.51137 1.019 0.164 1584.557 0.02349
0.09494 0.36705 0.59567 0.70609 0.51320 1.054 0.166 1584.594 0.02351
0.09504 0.36743 0.59628 0.70681 0.51502 1.054 0.166 1584.631 0.02353
0.09514 0.36780 0.59689 0.70754 0.51685 1.037 0.165 1584.668 0.02356
0.09523 0.36818 0.59750 0.70826 0.51868 1.055 0.166 1584.704 0.02358
0.09533 0.36856 0.59811 0.70898 0.52051 1.020 0.164 1584.741 0.02361
0.09543 0.36893 0.59872 0.70971 0.52234 1.195 0.175 1584.778 0.02363
