x y z dist_scaled dist_frac flux_norm wavelength redshift
0.25371 -0.17026 0.39918 0.50270 0.00000 1.020 1574.239 0.01682
0.25408 -0.17051 0.39975 0.50342 0.00181 1.036 1574.276 0.01685
0.25444 -0.17075 0.40032 0.50413 0.00362 0.853 1574.312 0.01687
0.25480 -0.17099 0.40089 0.50485 0.00543 0.996 1574.349 0.01689
0.25516 -0.17124 0.40146 0.50557 0.00724 0.798 1574.386 0.01692
0.25553 -0.17148 0.40203 0.50629 0.00906 0.846 1574.422 0.01694
0.25589 -0.17172 0.40260 0.50700 0.01087 1.046 1574.459 0.01696
0.25625 -0.17196 0.40317 0.50772 0.01268 1.078 1574.496 0.01699
0.25661 -0.17221 0.40374 0.50844 0.01449 0.959 1574.533 0.01701
0.25697 -0.17245 0.40431 0.50916 0.01630 0.864 1574.569 0.01704
0.25734 -0.17269 0.40488 0.50988 0.01811 0.960 1574.606 0.01706
0.25770 -0.17294 0.40545 0.51059 0.01992 0.763 1574.643 0.01708
0.25806 -0.17318 0.40602 0.51131 0.02174 0.975 1574.680 0.01711
0.25842 -0.17342 0.40659 0.51203 0.02355 0.926 1574.716 0.01713
0.25879 -0.17367 0.40716 0.51275 0.02536 0.846 1574.753 0.01715
0.25915 -0.17391 0.40773 0.51347 0.02717 1.176 1574.790 0.01718
0.25951 -0.17415 0.40830 0.51418 0.02898 1.061 1574.826 0.01720
0.25987 -0.17440 0.40887 0.51490 0.03080 0.965 1574.863 0.01723
0.26024 -0.17464 0.40944 0.51562 0.03261 0.862 1574.900 0.01725
0.26060 -0.17488 0.41001 0.51634 0.03442 0.924 1574.937 0.01727
0.26096 -0.17513 0.41058 0.51706 0.03623 0.954 1574.973 0.01730
0.26132 -0.17537 0.41115 0.51778 0.03804 0.902 1575.010 0.01732
0.26169 -0.17561 0.41172 0.51849 0.03986 1.093 1575.047 0.01734
0.26205 -0.17586 0.41229 0.51921 0.04167 0.862 1575.083 0.01737
0.26241 -0.17610 0.41286 0.51993 0.04348 0.930 1575.120 0.01739
0.26277 -0.17634 0.41343 0.52065 0.04529 0.999 1575.157 0.01742
0.26314 -0.17659 0.41400 0.52137 0.04711 1.009 1575.194 0.01744
0.26350 -0.17683 0.41457 0.52209 0.04892 0.856 1575.230 0.01746
0.26386 -0.17707 0.41515 0.52280 0.05073 0.764 1575.267 0.01749
0.26422 -0.17732 0.41572 0.52352 0.05254 0.833 1575.304 0.01751
0.26459 -0.17756 0.41629 0.52424 0.05436 0.729 1575.340 0.01753
0.26495 -0.17780 0.41686 0.52496 0.05617 0.912 1575.377 0.01756
0.26531 -0.17805 0.41743 0.52568 0.05798 0.864 1575.414 0.01758
0.26567 -0.17829 0.41800 0.52640 0.05980 0.837 1575.451 0.01760
0.26604 -0.17853 0.41857 0.52711 0.06161 0.795 1575.487 0.01763
0.26640 -0.17878 0.41914 0.52783 0.06342 0.784 1575.524 0.01765
0.26676 -0.17902 0.41971 0.52855 0.06524 0.832 1575.561 0.01768
0.26713 -0.17926 0.42028 0.52927 0.06705 0.930 1575.598 0.01770
0.26749 -0.17951 0.42085 0.52999 0.06886 0.889 1575.634 0.01772
0.26785 -0.17975 0.42142 0.53071 0.07068 0.944 1575.671 0.01775
0.26821 -0.17999 0.42199 0.53143 0.07249 0.752 1575.708 0.01777
0.26858 -0.18024 0.42256 0.53214 0.07430 0.781 1575.744 0.01779
0.26894 -0.18048 0.42313 0.53286 0.07612 1.063 1575.781 0.01782
0.26930 -0.18072 0.42370 0.53358 0.07793 0.947 1575.818 0.01784
0.26966 -0.18097 0.42428 0.53430 0.07974 0.961 1575.855 0.01787
0.27003 -0.18121 0.42485 0.53502 0.08156 1.029 1575.891 0.01789
0.27039 -0.18145 0.42542 0.53574 0.08337 1.066 1575.928 0.01791
0.27075 -0.18170 0.42599 0.53646 0.08518 1.084 1575.965 0.01794
0.27112 -0.18194 0.42656 0.53718 0.08700 0.873 1576.001 0.01796
0.27148 -0.18218 0.42713 0.53790 0.08881 0.962 1576.038 0.01798
0.27184 -0.18243 0.42770 0.53861 0.09063 1.026 1576.075 0.01801
0.27220 -0.18267 0.42827 0.53933 0.09244 1.042 1576.112 0.01803
0.27257 -0.18292 0.42884 0.54005 0.09426 0.980 1576.148 0.01806
0.27293 -0.18316 0.42941 0.54077 0.09607 1.053 1576.185 0.01808
0.27329 -0.18340 0.42998 0.54149 0.09788 1.019 1576.222 0.01810
0.27366 -0.18365 0.43056 0.54221 0.09970 0.941 1576.259 0.01813
0.27402 -0.18389 0.43113 0.54293 0.10151 1.035 1576.295 0.01815
0.27438 -0.18413 0.43170 0.54365 0.10333 0.943 1576.332 0.01817
0.27474 -0.18438 0.43227 0.54437 0.10514 0.829 1576.369 0.01820
0.27511 -0.18462 0.43284 0.54509 0.10696 1.065 1576.405 0.01822
0.27547 -0.18486 0.43341 0.54581 0.10877 0.790 1576.442 0.01825
0.27583 -0.18511 0.43398 0.54652 0.11059 0.871 1576.479 0.01827
0.27620 -0.18535 0.43455 0.54724 0.11240 1.108 1576.516 0.01829
0.27656 -0.18559 0.43512 0.54796 0.11422 0.815 1576.552 0.01832
0.27692 -0.18584 0.43570 0.54868 0.11603 0.954 1576.589 0.01834
0.27729 -0.18608 0.43627 0.54940 0.11785 0.904 1576.626 0.01836
0.27765 -0.18633 0.43684 0.55012 0.11966 0.749 1576.662 0.01839
0.27801 -0.18657 0.43741 0.55084 0.12148 0.970 1576.699 0.01841
0.27838 -0.18681 0.43798 0.55156 0.12329 1.167 1576.736 0.01843
0.27874 -0.18706 0.43855 0.55228 0.12511 1.044 1576.773 0.01846
0.27910 -0.18730 0.43912 0.55300 0.12692 0.988 1576.809 0.01848
0.27946 -0.18754 0.43969 0.55372 0.12874 1.021 1576.846 0.01851
0.27983 -0.18779 0.44027 0.55444 0.13055 0.833 1576.883 0.01853
0.28019 -0.18803 0.44084 0.55516 0.13237 0.949 1576.919 0.01855
0.28055 -0.18827 0.44141 0.55588 0.13418 0.809 1576.956 0.01858
0.28092 -0.18852 0.44198 0.55660 0.13600 0.867 1576.993 0.01860
0.28128 -0.18876 0.44255 0.55732 0.13782 0.851 1577.030 0.01862
0.28164 -0.18901 0.44312 0.55804 0.13963 1.081 1577.066 0.01865
0.28201 -0.18925 0.44369 0.55876 0.14145 0.826 1577.103 0.01867
0.28237 -0.18949 0.44427 0.55948 0.14326 1.106 1577.140 0.01870
0.28273 -0.18974 0.44484 0.56019 0.14508 0.860 1577.177 0.01872
0.28310 -0.18998 0.44541 0.56091 0.14689 0.992 1577.213 0.01874
0.28346 -0.19022 0.44598 0.56163 0.14871 0.877 1577.250 0.01877
0.28382 -0.19047 0.44655 0.56235 0.15053 0.910 1577.287 0.01879
0.28419 -0.19071 0.44712 0.56307 0.15234 0.935 1577.323 0.01881
0.28455 -0.19096 0.44769 0.56379 0.15416 0.903 1577.360 0.01884
0.28491 -0.19120 0.44827 0.56451 0.15598 1.035 1577.397 0.01886
0.28528 -0.19144 0.44884 0.56523 0.15779 1.020 1577.434 0.01889
0.28564 -0.19169 0.44941 0.56595 0.15961 1.087 1577.470 0.01891
0.28600 -0.19193 0.44998 0.56667 0.16143 0.938 1577.507 0.01893
0.28637 -0.19218 0.45055 0.56739 0.16324 0.928 1577.544 0.01896
0.28673 -0.19242 0.45112 0.56811 0.16506 1.048 1577.580 0.01898
0.28709 -0.19266 0.45170 0.56883 0.16688 1.011 1577.617 0.01900
0.28746 -0.19291 0.45227 0.56955 0.16869 1.030 1577.654 0.01903
0.28782 -0.19315 0.45284 0.57027 0.17051 1.090 1577.691 0.01905
0.28818 -0.19339 0.45341 0.57099 0.17233 0.903 1577.727 0.01908
0.28855 -0.19364 0.45398 0.57171 0.17414 1.123 1577.764 0.01910
0.28891 -0.19388 0.45456 0.57243 0.17596 1.111 1577.801 0.01912
0.28927 -0.19413 0.45513 0.57315 0.17778 1.134 1577.837 0.01915
0.28964 -0.19437 0.45570 0.57387 0.17959 1.124 1577.874 0.01917
0.29000 -0.19461 0.45627 0.57459 0.18141 0.882 1577.911 0.01919
0.29036 -0.19486 0.45684 0.57531 0.18323 0.673 1577.948 0.01922
0.29073 -0.19510 0.45741 0.57603 0.18505 0.655 1577.984 0.01924
0.29109 -0.19535 0.45799 0.57675 0.18686 0.724 1578.021 0.01927
0.29145 -0.19559 0.45856 0.57748 0.18868 0.532 1578.058 0.01929
0.29182 -0.19583 0.45913 0.57820 0.19050 0.741 1578.095 0.01931
0.29218 -0.19608 0.45970 0.57892 0.19232 0.912 1578.131 0.01934
0.29255 -0.19632 0.46027 0.57964 0.19413 0.764 1578.168 0.01936
0.29291 -0.19657 0.46085 0.58036 0.19595 0.668 1578.205 0.01938
0.29327 -0.19681 0.46142 0.58108 0.19777 0.657 1578.241 0.01941
0.29364 -0.19705 0.46199 0.58180 0.19959 0.573 1578.278 0.01943
0.29400 -0.19730 0.46256 0.58252 0.20141 0.675 1578.315 0.01945
0.29436 -0.19754 0.46314 0.58324 0.20322 0.478 1578.352 0.01948
0.29473 -0.19779 0.46371 0.58396 0.20504 0.578 1578.388 0.01950
0.29509 -0.19803 0.46428 0.58468 0.20686 0.552 1578.425 0.01953
0.29545 -0.19827 0.46485 0.58540 0.20868 0.779 1578.462 0.01955
0.29582 -0.19852 0.46542 0.58612 0.21050 0.626 1578.498 0.01957
0.29618 -0.19876 0.46600 0.58684 0.21231 0.805 1578.535 0.01960
0.29655 -0.19901 0.46657 0.58756 0.21413 0.833 1578.572 0.01962
0.29691 -0.19925 0.46714 0.58828 0.21595 0.862 1578.609 0.01964
0.29727 -0.19949 0.46771 0.58900 0.21777 0.959 1578.645 0.01967
0.29764 -0.19974 0.46829 0.58972 0.21959 0.921 1578.682 0.01969
0.29800 -0.19998 0.46886 0.59044 0.22141 1.020 1578.719 0.01972
0.29836 -0.20023 0.46943 0.59117 0.22323 1.110 1578.755 0.01974
0.29873 -0.20047 0.47000 0.59189 0.22504 0.948 1578.792 0.01976
0.29909 -0.20072 0.47057 0.59261 0.22686 1.140 1578.829 0.01979
0.29946 -0.20096 0.47115 0.59333 0.22868 0.864 1578.866 0.01981
0.29982 -0.20120 0.47172 0.59405 0.23050 1.159 1578.902 0.01983
0.30018 -0.20145 0.47229 0.59477 0.23232 0.994 1578.939 0.01986
0.30055 -0.20169 0.47286 0.59549 0.23414 1.036 1578.976 0.01988
0.30091 -0.20194 0.47344 0.59621 0.23596 0.868 1579.013 0.01991
0.30127 -0.20218 0.47401 0.59693 0.23778 0.980 1579.049 0.01993
0.30164 -0.20242 0.47458 0.59765 0.23960 0.849 1579.086 0.01995
0.30200 -0.20267 0.47515 0.59837 0.24142 1.248 1579.123 0.01998
0.30237 -0.20291 0.47573 0.59910 0.24323 1.127 1579.159 0.02000
0.30273 -0.20316 0.47630 0.59982 0.24505 0.828 1579.196 0.02002
0.30309 -0.20340 0.47687 0.60054 0.24687 0.936 1579.233 0.02005
0.30346 -0.20365 0.47744 0.60126 0.24869 0.978 1579.270 0.02007
0.30382 -0.20389 0.47802 0.60198 0.25051 0.972 1579.306 0.02010
0.30419 -0.20413 0.47859 0.60270 0.25233 1.039 1579.343 0.02012
0.30455 -0.20438 0.47916 0.60342 0.25415 0.952 1579.380 0.02014
0.30491 -0.20462 0.47974 0.60414 0.25597 1.004 1579.416 0.02017
0.30528 -0.20487 0.48031 0.60486 0.25779 0.940 1579.453 0.02019
0.30564 -0.20511 0.48088 0.60559 0.25961 0.976 1579.490 0.02021
0.30601 -0.20536 0.48145 0.60631 0.26143 0.834 1579.527 0.02024
0.30637 -0.20560 0.48203 0.60703 0.26325 1.125 1579.563 0.02026
0.30673 -0.20584 0.48260 0.60775 0.26507 0.935 1579.600 0.02028
0.30710 -0.20609 0.48317 0.60847 0.26689 1.015 1579.637 0.02031
0.30746 -0.20633 0.48375 0.60919 0.26871 1.097 1579.674 0.02033
0.30783 -0.20658 0.48432 0.60991 0.27053 1.076 1579.710 0.02036
0.30819 -0.20682 0.48489 0.61064 0.27235 1.145 1579.747 0.02038
0.30856 -0.20707 0.48546 0.61136 0.27417 1.137 1579.784 0.02040
0.30892 -0.20731 0.48604 0.61208 0.27599 1.078 1579.820 0.02043
0.30928 -0.20755 0.48661 0.61280 0.27782 0.941 1579.857 0.02045
0.30965 -0.20780 0.48718 0.61352 0.27964 1.049 1579.894 0.02047
0.31001 -0.20804 0.48776 0.61424 0.28146 1.030 1579.931 0.02050
0.31038 -0.20829 0.48833 0.61496 0.28328 1.090 1579.967 0.02052
0.31074 -0.20853 0.48890 0.61569 0.28510 0.864 1580.004 0.02055
0.31110 -0.20878 0.48947 0.61641 0.28692 1.011 1580.041 0.02057
0.31147 -0.20902 0.49005 0.61713 0.28874 1.060 1580.077 0.02059
0.31183 -0.20927 0.49062 0.61785 0.29056 0.874 1580.114 0.02062
0.31220 -0.20951 0.49119 0.61857 0.29238 0.982 1580.151 0.02064
0.31256 -0.20975 0.49177 0.61930 0.29420 1.003 1580.188 0.02066
0.31293 -0.21000 0.49234 0.62002 0.29602 0.797 1580.224 0.02069
0.31329 -0.21024 0.49291 0.62074 0.29785 1.013 1580.261 0.02071
0.31365 -0.21049 0.49349 0.62146 0.29967 0.866 1580.298 0.02074
0.31402 -0.21073 0.49406 0.62218 0.30149 0.906 1580.334 0.02076
0.31438 -0.21098 0.49463 0.62290 0.30331 1.113 1580.371 0.02078
0.31475 -0.21122 0.49521 0.62363 0.30513 0.827 1580.408 0.02081
0.31511 -0.21147 0.49578 0.62435 0.30695 1.004 1580.445 0.02083
0.31548 -0.21171 0.49635 0.62507 0.30877 1.025 1580.481 0.02085
0.31584 -0.21195 0.49693 0.62579 0.31060 1.113 1580.518 0.02088
0.31620 -0.21220 0.49750 0.62651 0.31242 1.084 1580.555 0.02090
0.31657 -0.21244 0.49807 0.62724 0.31424 0.907 1580.592 0.02093
0.31693 -0.21269 0.49865 0.62796 0.31606 1.194 1580.628 0.02095
0.31730 -0.21293 0.49922 0.62868 0.31788 0.918 1580.665 0.02097
0.31766 -0.21318 0.49979 0.62940 0.31971 0.820 1580.702 0.02100
0.31803 -0.21342 0.50037 0.63012 0.32153 0.933 1580.738 0.02102
0.31839 -0.21367 0.50094 0.63085 0.32335 0.911 1580.775 0.02104
0.31876 -0.21391 0.50151 0.63157 0.32517 0.920 1580.812 0.02107
0.31912 -0.21416 0.50209 0.63229 0.32699 0.845 1580.849 0.02109
0.31948 -0.21440 0.50266 0.63301 0.32882 0.983 1580.885 0.02112
0.31985 -0.21465 0.50323 0.63374 0.33064 1.062 1580.922 0.02114
0.32021 -0.21489 0.50381 0.63446 0.33246 0.908 1580.959 0.02116
0.32058 -0.21513 0.50438 0.63518 0.33428 1.013 1580.995 0.02119
0.32094 -0.21538 0.50495 0.63590 0.33611 0.886 1581.032 0.02121
0.32131 -0.21562 0.50553 0.63662 0.33793 0.984 1581.069 0.02123
0.32167 -0.21587 0.50610 0.63735 0.33975 1.059 1581.106 0.02126
0.32204 -0.21611 0.50668 0.63807 0.34157 1.078 1581.142 0.02128
0.32240 -0.21636 0.50725 0.63879 0.34340 0.968 1581.179 0.02130
0.32277 -0.21660 0.50782 0.63951 0.34522 0.889 1581.216 0.02133
0.32313 -0.21685 0.50840 0.64024 0.34704 0.893 1581.252 0.02135
0.32350 -0.21709 0.50897 0.64096 0.34887 1.016 1581.289 0.02138
0.32386 -0.21734 0.50954 0.64168 0.35069 1.122 1581.326 0.02140
0.32422 -0.21758 0.51012 0.64240 0.35251 0.946 1581.363 0.02142
0.32459 -0.21783 0.51069 0.64313 0.35434 1.122 1581.399 0.02145
0.32495 -0.21807 0.51126 0.64385 0.35616 0.840 1581.436 0.02147
0.32532 -0.21832 0.51184 0.64457 0.35798 1.039 1581.473 0.02149
0.32568 -0.21856 0.51241 0.64529 0.35981 1.075 1581.510 0.02152
0.32605 -0.21881 0.51299 0.64602 0.36163 0.806 1581.546 0.02154
0.32641 -0.21905 0.51356 0.64674 0.36345 1.058 1581.583 0.02157
0.32678 -0.21929 0.51413 0.64746 0.36528 1.049 1581.620 0.02159
0.32714 -0.21954 0.51471 0.64819 0.36710 1.123 1581.656 0.02161
0.32751 -0.21978 0.51528 0.64891 0.36892 1.065 1581.693 0.02164
0.32787 -0.22003 0.51586 0.64963 0.37075 1.076 1581.730 0.02166
0.32824 -0.22027 0.51643 0.65035 0.37257 1.018 1581.767 0.02168
0.32860 -0.22052 0.51700 0.65108 0.37440 1.090 1581.803 0.02171
0.32897 -0.22076 0.51758 0.65180 0.37622 1.073 1581.840 0.02173
0.32933 -0.22101 0.51815 0.65252 0.37804 0.964 1581.877 0.02176
0.32970 -0.22125 0.51873 0.65325 0.37987 0.990 1581.913 0.02178
0.33006 -0.22150 0.51930 0.65397 0.38169 1.005 1581.950 0.02180
0.33043 -0.22174 0.51987 0.65469 0.38352 1.087 1581.987 0.02183
0.33079 -0.22199 0.52045 0.65541 0.38534 0.820 1582.024 0.02185
0.33116 -0.22223 0.52102 0.65614 0.38716 0.974 1582.060 0.02187
0.33152 -0.22248 0.52160 0.65686 0.38899 0.780 1582.097 0.02190
0.33189 -0.22272 0.52217 0.65758 0.39081 0.944 1582.134 0.02192
0.33225 -0.22297 0.52274 0.65831 0.39264 1.126 1582.171 0.02195
0.33262 -0.22321 0.52332 0.65903 0.39446 0.855 1582.207 0.02197
0.33298 -0.22346 0.52389 0.65975 0.39629 0.951 1582.244 0.02199
0.33335 -0.22370 0.52447 0.66048 0.39811 0.912 1582.281 0.02202
0.33371 -0.22395 0.52504 0.66120 0.39994 0.931 1582.317 0.02204
0.33408 -0.22419 0.52562 0.66192 0.40176 1.067 1582.354 0.02206
0.33444 -0.22444 0.52619 0.66265 0.40359 1.007 1582.391 0.02209
0.33481 -0.22468 0.52676 0.66337 0.40541 0.875 1582.428 0.02211
0.33517 -0.22493 0.52734 0.66409 0.40724 0.877 1582.464 0.02213
0.33554 -0.22517 0.52791 0.66482 0.40906 1.126 1582.501 0.02216
0.33590 -0.22542 0.52849 0.66554 0.41089 1.206 1582.538 0.02218
0.33627 -0.22566 0.52906 0.66626 0.41271 1.065 1582.574 0.02221
0.33663 -0.22591 0.52964 0.66699 0.41454 1.254 1582.611 0.02223
0.33700 -0.22615 0.53021 0.66771 0.41636 1.028 1582.648 0.02225
0.33736 -0.22640 0.53079 0.66843 0.41819 1.066 1582.685 0.02228
0.33773 -0.22664 0.53136 0.66916 0.42001 0.988 1582.721 0.02230
0.33809 -0.22689 0.53193 0.66988 0.42184 0.923 1582.758 0.02232
0.33846 -0.22713 0.53251 0.67060 0.42366 0.704 1582.795 0.02235
0.33882 -0.22738 0.53308 0.67133 0.42549 1.049 1582.831 0.02237
0.33919 -0.22762 0.53366 0.67205 0.42732 0.977 1582.868 0.02240
0.33955 -0.22787 0.53423 0.67277 0.42914 0.741 1582.905 0.02242
0.33992 -0.22811 0.53481 0.67350 0.43097 0.929 1582.942 0.02244
0.34028 -0.22836 0.53538 0.67422 0.43279 1.035 1582.978 0.02247
0.34065 -0.22860 0.53596 0.67494 0.43462 1.116 1583.015 0.02249
0.34101 -0.22885 0.53653 0.67567 0.43645 1.014 1583.052 0.02251
0.34138 -0.22909 0.53711 0.67639 0.43827 0.965 1583.089 0.02254
0.34174 -0.22934 0.53768 0.67712 0.44010 0.846 1583.125 0.02256
0.34211 -0.22958 0.53826 0.67784 0.44192 1.086 1583.162 0.02259
0.34247 -0.22983 0.53883 0.67856 0.44375 0.895 1583.199 0.02261
0.34284 -0.23007 0.53941 0.67929 0.44558 0.871 1583.235 0.02263
0.34320 -0.23032 0.53998 0.68001 0.44740 0.812 1583.272 0.02266
0.34357 -0.23056 0.54055 0.68073 0.44923 0.896 1583.309 0.02268
0.34394 -0.23081 0.54113 0.68146 0.45106 0.969 1583.346 0.02270
0.34430 -0.23105 0.54170 0.68218 0.45288 0.994 1583.382 0.02273
0.34467 -0.23130 0.54228 0.68291 0.45471 0.981 1583.419 0.02275
0.34503 -0.23154 0.54285 0.68363 0.45654 0.933 1583.456 0.02278
0.34540 -0.23179 0.54343 0.68435 0.45836 0.934 1583.492 0.02280
0.34576 -0.23204 0.54400 0.68508 0.46019 0.755 1583.529 0.02282
0.34613 -0.23228 0.54458 0.68580 0.46202 1.187 1583.566 0.02285
0.34649 -0.23253 0.54515 0.68653 0.46384 0.972 1583.603 0.02287
0.34686 -0.23277 0.54573 0.68725 0.46567 1.002 1583.639 0.02289
0.34722 -0.23302 0.54630 0.68797 0.46750 1.294 1583.676 0.02292
0.34759 -0.23326 0.54688 0.68870 0.46933 0.840 1583.713 0.02294
0.34796 -0.23351 0.54745 0.68942 0.47115 0.928 1583.749 0.02297
0.34832 -0.23375 0.54803 0.69015 0.47298 1.002 1583.786 0.02299
0.34869 -0.23400 0.54860 0.69087 0.47481 0.987 1583.823 0.02301
0.34905 -0.23424 0.54918 0.69160 0.47663 0.694 1583.860 0.02304
0.34942 -0.23449 0.54975 0.69232 0.47846 0.944 1583.896 0.02306
0.34978 -0.23473 0.55033 0.69304 0.48029 1.061 1583.933 0.02308
0.35015 -0.23498 0.55090 0.69377 0.48212 1.107 1583.970 0.02311
0.35051 -0.23522 0.55148 0.69449 0.48394 1.108 1584.007 0.02313
0.35088 -0.23547 0.55205 0.69522 0.48577 0.858 1584.043 0.02315
0.35125 -0.23571 0.55263 0.69594 0.48760 0.829 1584.080 0.02318
0.35161 -0.23596 0.55321 0.69667 0.48943 0.888 1584.117 0.02320
0.35198 -0.23621 0.55378 0.69739 0.49126 1.035 1584.153 0.02323
0.35234 -0.23645 0.55436 0.69811 0.49308 0.770 1584.190 0.02325
0.35271 -0.23670 0.55493 0.69884 0.49491 1.169 1584.227 0.02327
0.35307 -0.23694 0.55551 0.69956 0.49674 0.948 1584.264 0.02330
0.35344 -0.23719 0.55608 0.70029 0.49857 1.006 1584.300 0.02332
0.35380 -0.23743 0.55666 0.70101 0.50040 1.035 1584.337 0.02334
0.35417 -0.23768 0.55723 0.70174 0.50222 0.859 1584.374 0.02337
0.35454 -0.23792 0.55781 0.70246 0.50405 0.963 1584.410 0.02339
0.35490 -0.23817 0.55838 0.70319 0.50588 1.053 1584.447 0.02342
0.35527 -0.23841 0.55896 0.70391 0.50771 0.920 1584.484 0.02344
0.35563 -0.23866 0.55953 0.70464 0.50954 0.920 1584.521 0.02346
0.35600 -0.23890 0.56011 0.70536 0.51137 1.040 1584.557 0.02349
0.35637 -0.23915 0.56069 0.70609 0.51320 1.176 1584.594 0.02351
0.35673 -0.23940 0.56126 0.70681 0.51502 1.153 1584.631 0.02353
0.35710 -0.23964 0.56184 0.70754 0.51685 1.010 1584.668 0.02356
0.35746 -0.23989 0.56241 0.70826 0.51868 1.279 1584.704 0.02358
0.35783 -0.24013 0.56299 0.70898 0.52051 1.113 1584.741 0.02361
0.35819 -0.24038 0.56356 0.70971 0.52234 1.295 1584.778 0.02363
0.35856 -0.24062 0.56414 0.71043 0.52417 0.910 1584.814 0.02365
0.35893 -0.24087 0.56471 0.71116 0.52600 0.964 1584.851 0.02368
0.35929 -0.24111 0.56529 0.71188 0.52783 1.072 1584.888 0.02370
0.35966 -0.24136 0.56587 0.71261 0.52966 0.922 1584.925 0.02372
0.36002 -0.24161 0.56644 0.71333 0.53149 0.888 1584.961 0.02375
0.36039 -0.24185 0.56702 0.71406 0.53332 1.174 1584.998 0.02377
0.36076 -0.24210 0.56759 0.71478 0.53514 0.849 1585.035 0.02380
0.36112 -0.24234 0.56817 0.71551 0.53697 1.053 1585.071 0.02382
0.36149 -0.24259 0.56874 0.71623 0.53880 1.121 1585.108 0.02384
0.36185 -0.24283 0.56932 0.71696 0.54063 1.065 1585.145 0.02387
0.36222 -0.24308 0.56990 0.71768 0.54246 1.194 1585.182 0.02389
0.36259 -0.24332 0.57047 0.71841 0.54429 0.956 1585.218 0.02391
0.36295 -0.24357 0.57105 0.71913 0.54612 1.031 1585.255 0.02394
0.36332 -0.24382 0.57162 0.71986 0.54795 0.882 1585.292 0.02396
0.36368 -0.24406 0.57220 0.72059 0.54978 1.047 1585.328 0.02399
0.36405 -0.24431 0.57278 0.72131 0.55161 1.048 1585.365 0.02401
0.36442 -0.24455 0.57335 0.72204 0.55344 0.919 1585.402 0.02403
0.36478 -0.24480 0.57393 0.72276 0.55527 1.058 1585.439 0.02406
0.36515 -0.24504 0.57450 0.72349 0.55710 0.958 1585.475 0.02408
0.36551 -0.24529 0.57508 0.72421 0.55893 0.717 1585.512 0.02410
0.36588 -0.24554 0.57565 0.72494 0.56076 1.019 1585.549 0.02413
0.36625 -0.24578 0.57623 0.72566 0.56259 1.047 1585.586 0.02415
0.36661 -0.24603 0.57681 0.72639 0.56442 0.950 1585.622 0.02417
