x y z dist_scaled dist_frac flux_norm wavelength redshift
0.13081 0.01123 0.48525 0.50270 0.00000 0.887 1574.239 0.01682
0.13100 0.01125 0.48594 0.50342 0.00181 1.091 1574.276 0.01685
0.13119 0.01127 0.48664 0.50413 0.00362 1.172 1574.312 0.01687
0.13137 0.01128 0.48733 0.50485 0.00543 1.092 1574.349 0.01689
0.13156 0.01130 0.48802 0.50557 0.00724 0.808 1574.386 0.01692
0.13175 0.01131 0.48871 0.50629 0.00906 0.949 1574.422 0.01694
0.13193 0.01133 0.48941 0.50700 0.01087 1.052 1574.459 0.01696
0.13212 0.01135 0.49010 0.50772 0.01268 0.543 1574.496 0.01699
0.13231 0.01136 0.49079 0.50844 0.01449 0.971 1574.533 0.01701
0.13249 0.01138 0.49149 0.50916 0.01630 1.074 1574.569 0.01704
0.13268 0.01139 0.49218 0.50988 0.01811 0.850 1574.606 0.01706
0.13287 0.01141 0.49287 0.51059 0.01992 1.035 1574.643 0.01708
0.13305 0.01143 0.49356 0.51131 0.02174 0.995 1574.680 0.01711
0.13324 0.01144 0.49426 0.51203 0.02355 0.976 1574.716 0.01713
0.13343 0.01146 0.49495 0.51275 0.02536 0.936 1574.753 0.01715
0.13361 0.01147 0.49564 0.51347 0.02717 0.690 1574.790 0.01718
0.13380 0.01149 0.49634 0.51418 0.02898 0.813 1574.826 0.01720
0.13399 0.01151 0.49703 0.51490 0.03080 1.264 1574.863 0.01723
0.13417 0.01152 0.49772 0.51562 0.03261 0.814 1574.900 0.01725
0.13436 0.01154 0.49842 0.51634 0.03442 0.938 1574.937 0.01727
0.13455 0.01155 0.49911 0.51706 0.03623 1.185 1574.973 0.01730
0.13474 0.01157 0.49980 0.51778 0.03804 0.961 1575.010 0.01732
0.13492 0.01159 0.50050 0.51849 0.03986 1.084 1575.047 0.01734
0.13511 0.01160 0.50119 0.51921 0.04167 1.043 1575.083 0.01737
0.13530 0.01162 0.50188 0.51993 0.04348 0.961 1575.120 0.01739
0.13548 0.01163 0.50258 0.52065 0.04529 1.105 1575.157 0.01742
0.13567 0.01165 0.50327 0.52137 0.04711 1.229 1575.194 0.01744
0.13586 0.01167 0.50396 0.52209 0.04892 1.045 1575.230 0.01746
0.13604 0.01168 0.50466 0.52280 0.05073 1.107 1575.267 0.01749
0.13623 0.01170 0.50535 0.52352 0.05254 1.171 1575.304 0.01751
0.13642 0.01171 0.50604 0.52424 0.05436 0.923 1575.340 0.01753
0.13660 0.01173 0.50674 0.52496 0.05617 1.006 1575.377 0.01756
0.13679 0.01175 0.50743 0.52568 0.05798 1.090 1575.414 0.01758
0.13698 0.01176 0.50813 0.52640 0.05980 1.153 1575.451 0.01760
0.13717 0.01178 0.50882 0.52711 0.06161 1.070 1575.487 0.01763
0.13735 0.01179 0.50951 0.52783 0.06342 1.008 1575.524 0.01765
0.13754 0.01181 0.51021 0.52855 0.06524 0.822 1575.561 0.01768
0.13773 0.01183 0.51090 0.52927 0.06705 1.114 1575.598 0.01770
0.13791 0.01184 0.51159 0.52999 0.06886 1.218 1575.634 0.01772
0.13810 0.01186 0.51229 0.53071 0.07068 1.115 1575.671 0.01775
0.13829 0.01188 0.51298 0.53143 0.07249 0.866 1575.708 0.01777
0.13847 0.01189 0.51367 0.53214 0.07430 1.033 1575.744 0.01779
0.13866 0.01191 0.51437 0.53286 0.07612 1.284 1575.781 0.01782
0.13885 0.01192 0.51506 0.53358 0.07793 0.848 1575.818 0.01784
0.13904 0.01194 0.51576 0.53430 0.07974 0.910 1575.855 0.01787
0.13922 0.01196 0.51645 0.53502 0.08156 0.993 1575.891 0.01789
0.13941 0.01197 0.51714 0.53574 0.08337 1.201 1575.928 0.01791
0.13960 0.01199 0.51784 0.53646 0.08518 0.660 1575.965 0.01794
0.13978 0.01200 0.51853 0.53718 0.08700 0.764 1576.001 0.01796
0.13997 0.01202 0.51923 0.53790 0.08881 1.287 1576.038 0.01798
0.14016 0.01204 0.51992 0.53861 0.09063 0.893 1576.075 0.01801
0.14035 0.01205 0.52061 0.53933 0.09244 1.081 1576.112 0.01803
0.14053 0.01207 0.52131 0.54005 0.09426 1.061 1576.148 0.01806
0.14072 0.01208 0.52200 0.54077 0.09607 0.748 1576.185 0.01808
0.14091 0.01210 0.52270 0.54149 0.09788 0.979 1576.222 0.01810
0.14109 0.01212 0.52339 0.54221 0.09970 1.147 1576.259 0.01813
0.14128 0.01213 0.52408 0.54293 0.10151 1.022 1576.295 0.01815
0.14147 0.01215 0.52478 0.54365 0.10333 0.918 1576.332 0.01817
0.14166 0.01216 0.52547 0.54437 0.10514 1.003 1576.369 0.01820
0.14184 0.01218 0.52617 0.54509 0.10696 1.025 1576.405 0.01822
0.14203 0.01220 0.52686 0.54581 0.10877 1.046 1576.442 0.01825
0.14222 0.01221 0.52756 0.54652 0.11059 0.941 1576.479 0.01827
0.14240 0.01223 0.52825 0.54724 0.11240 1.089 1576.516 0.01829
0.14259 0.01224 0.52894 0.54796 0.11422 1.111 1576.552 0.01832
0.14278 0.01226 0.52964 0.54868 0.11603 1.049 1576.589 0.01834
0.14297 0.01228 0.53033 0.54940 0.11785 0.924 1576.626 0.01836
0.14315 0.01229 0.53103 0.55012 0.11966 0.882 1576.662 0.01839
0.14334 0.01231 0.53172 0.55084 0.12148 0.778 1576.699 0.01841
0.14353 0.01233 0.53242 0.55156 0.12329 1.200 1576.736 0.01843
0.14371 0.01234 0.53311 0.55228 0.12511 1.180 1576.773 0.01846
0.14390 0.01236 0.53380 0.55300 0.12692 0.991 1576.809 0.01848
0.14409 0.01237 0.53450 0.55372 0.12874 0.948 1576.846 0.01851
0.14428 0.01239 0.53519 0.55444 0.13055 0.972 1576.883 0.01853
0.14446 0.01241 0.53589 0.55516 0.13237 1.269 1576.919 0.01855
0.14465 0.01242 0.53658 0.55588 0.13418 0.847 1576.956 0.01858
0.14484 0.01244 0.53728 0.55660 0.13600 0.953 1576.993 0.01860
0.14502 0.01245 0.53797 0.55732 0.13782 0.805 1577.030 0.01862
0.14521 0.01247 0.53867 0.55804 0.13963 0.764 1577.066 0.01865
0.14540 0.01249 0.53936 0.55876 0.14145 0.765 1577.103 0.01867
0.14559 0.01250 0.54006 0.55948 0.14326 0.808 1577.140 0.01870
0.14577 0.01252 0.54075 0.56019 0.14508 0.809 1577.177 0.01872
0.14596 0.01253 0.54145 0.56091 0.14689 1.106 1577.213 0.01874
0.14615 0.01255 0.54214 0.56163 0.14871 0.830 1577.250 0.01877
0.14634 0.01257 0.54284 0.56235 0.15053 0.936 1577.287 0.01879
0.14652 0.01258 0.54353 0.56307 0.15234 0.958 1577.323 0.01881
0.14671 0.01260 0.54422 0.56379 0.15416 0.704 1577.360 0.01884
0.14690 0.01261 0.54492 0.56451 0.15598 0.917 1577.397 0.01886
0.14708 0.01263 0.54561 0.56523 0.15779 0.492 1577.434 0.01889
0.14727 0.01265 0.54631 0.56595 0.15961 0.386 1577.470 0.01891
0.14746 0.01266 0.54700 0.56667 0.16143 0.451 1577.507 0.01893
0.14765 0.01268 0.54770 0.56739 0.16324 0.473 1577.544 0.01896
0.14783 0.01269 0.54839 0.56811 0.16506 0.601 1577.580 0.01898
0.14802 0.01271 0.54909 0.56883 0.16688 0.687 1577.617 0.01900
0.14821 0.01273 0.54978 0.56955 0.16869 0.708 1577.654 0.01903
0.14840 0.01274 0.55048 0.57027 0.17051 0.837 1577.691 0.01905
0.14858 0.01276 0.55117 0.57099 0.17233 1.136 1577.727 0.01908
0.14877 0.01278 0.55187 0.57171 0.17414 0.987 1577.764 0.01910
0.14896 0.01279 0.55256 0.57243 0.17596 0.944 1577.801 0.01912
0.14915 0.01281 0.55326 0.57315 0.17778 0.902 1577.837 0.01915
0.14933 0.01282 0.55396 0.57387 0.17959 1.031 1577.874 0.01917
0.14952 0.01284 0.55465 0.57459 0.18141 1.075 1577.911 0.01919
0.14971 0.01286 0.55535 0.57531 0.18323 1.182 1577.948 0.01922
0.14990 0.01287 0.55604 0.57603 0.18505 1.183 1577.984 0.01924
0.15008 0.01289 0.55674 0.57675 0.18686 1.140 1578.021 0.01927
0.15027 0.01290 0.55743 0.57748 0.18868 1.076 1578.058 0.01929
0.15046 0.01292 0.55813 0.57820 0.19050 0.861 1578.095 0.01931
0.15065 0.01294 0.55882 0.57892 0.19232 0.711 1578.131 0.01934
0.15083 0.01295 0.55952 0.57964 0.19413 0.883 1578.168 0.01936
0.15102 0.01297 0.56021 0.58036 0.19595 0.905 1578.205 0.01938
0.15121 0.01298 0.56091 0.58108 0.19777 0.669 1578.241 0.01941
0.15140 0.01300 0.56160 0.58180 0.19959 0.798 1578.278 0.01943
0.15158 0.01302 0.56230 0.58252 0.20141 0.928 1578.315 0.01945
0.15177 0.01303 0.56299 0.58324 0.20322 0.993 1578.352 0.01948
0.15196 0.01305 0.56369 0.58396 0.20504 0.972 1578.388 0.01950
0.15215 0.01307 0.56439 0.58468 0.20686 1.058 1578.425 0.01953
0.15233 0.01308 0.56508 0.58540 0.20868 1.123 1578.462 0.01955
0.15252 0.01310 0.56578 0.58612 0.21050 1.015 1578.498 0.01957
0.15271 0.01311 0.56647 0.58684 0.21231 0.735 1578.535 0.01960
0.15290 0.01313 0.56717 0.58756 0.21413 0.971 1578.572 0.01962
0.15308 0.01315 0.56786 0.58828 0.21595 0.583 1578.609 0.01964
0.15327 0.01316 0.56856 0.58900 0.21777 0.971 1578.645 0.01967
0.15346 0.01318 0.56926 0.58972 0.21959 0.756 1578.682 0.01969
0.15365 0.01319 0.56995 0.59044 0.22141 1.188 1578.719 0.01972
0.15383 0.01321 0.57065 0.59117 0.22323 0.908 1578.755 0.01974
0.15402 0.01323 0.57134 0.59189 0.22504 0.844 1578.792 0.01976
0.15421 0.01324 0.57204 0.59261 0.22686 0.714 1578.829 0.01979
0.15440 0.01326 0.57273 0.59333 0.22868 0.692 1578.866 0.01981
0.15458 0.01327 0.57343 0.59405 0.23050 0.800 1578.902 0.01983
0.15477 0.01329 0.57413 0.59477 0.23232 0.800 1578.939 0.01986
0.15496 0.01331 0.57482 0.59549 0.23414 0.692 1578.976 0.01988
0.15515 0.01332 0.57552 0.59621 0.23596 0.693 1579.013 0.01991
0.15533 0.01334 0.57621 0.59693 0.23778 0.910 1579.049 0.01993
0.15552 0.01336 0.57691 0.59765 0.23960 0.867 1579.086 0.01995
0.15571 0.01337 0.57761 0.59837 0.24142 0.997 1579.123 0.01998
0.15590 0.01339 0.57830 0.59910 0.24323 1.236 1579.159 0.02000
0.15608 0.01340 0.57900 0.59982 0.24505 0.999 1579.196 0.02002
0.15627 0.01342 0.57969 0.60054 0.24687 1.020 1579.233 0.02005
0.15646 0.01344 0.58039 0.60126 0.24869 1.108 1579.270 0.02007
0.15665 0.01345 0.58109 0.60198 0.25051 0.892 1579.306 0.02010
0.15683 0.01347 0.58178 0.60270 0.25233 0.740 1579.343 0.02012
0.15702 0.01348 0.58248 0.60342 0.25415 0.805 1579.380 0.02014
0.15721 0.01350 0.58317 0.60414 0.25597 0.762 1579.416 0.02017
0.15740 0.01352 0.58387 0.60486 0.25779 0.587 1579.453 0.02019
0.15759 0.01353 0.58457 0.60559 0.25961 0.783 1579.490 0.02021
0.15777 0.01355 0.58526 0.60631 0.26143 0.695 1579.527 0.02024
0.15796 0.01356 0.58596 0.60703 0.26325 0.914 1579.563 0.02026
0.15815 0.01358 0.58666 0.60775 0.26507 0.805 1579.600 0.02028
0.15834 0.01360 0.58735 0.60847 0.26689 1.067 1579.637 0.02031
0.15852 0.01361 0.58805 0.60919 0.26871 0.697 1579.674 0.02033
0.15871 0.01363 0.58874 0.60991 0.27053 0.896 1579.710 0.02036
0.15890 0.01365 0.58944 0.61064 0.27235 0.897 1579.747 0.02038
0.15909 0.01366 0.59014 0.61136 0.27417 1.138 1579.784 0.02040
0.15928 0.01368 0.59083 0.61208 0.27599 1.052 1579.820 0.02043
0.15946 0.01369 0.59153 0.61280 0.27782 1.030 1579.857 0.02045
0.15965 0.01371 0.59223 0.61352 0.27964 1.051 1579.894 0.02047
0.15984 0.01373 0.59292 0.61424 0.28146 1.161 1579.931 0.02050
0.16003 0.01374 0.59362 0.61496 0.28328 1.118 1579.967 0.02052
0.16021 0.01376 0.59432 0.61569 0.28510 0.987 1580.004 0.02055
0.16040 0.01377 0.59501 0.61641 0.28692 0.900 1580.041 0.02057
0.16059 0.01379 0.59571 0.61713 0.28874 0.703 1580.077 0.02059
0.16078 0.01381 0.59641 0.61785 0.29056 0.945 1580.114 0.02062
0.16097 0.01382 0.59710 0.61857 0.29238 1.033 1580.151 0.02064
0.16115 0.01384 0.59780 0.61930 0.29420 0.857 1580.188 0.02066
0.16134 0.01385 0.59850 0.62002 0.29602 0.856 1580.224 0.02069
0.16153 0.01387 0.59919 0.62074 0.29785 0.878 1580.261 0.02071
0.16172 0.01389 0.59989 0.62146 0.29967 1.010 1580.298 0.02074
0.16190 0.01390 0.60059 0.62218 0.30149 0.879 1580.334 0.02076
0.16209 0.01392 0.60128 0.62290 0.30331 1.011 1580.371 0.02078
0.16228 0.01394 0.60198 0.62363 0.30513 0.658 1580.408 0.02081
0.16247 0.01395 0.60268 0.62435 0.30695 0.615 1580.445 0.02083
0.16266 0.01397 0.60337 0.62507 0.30877 0.681 1580.481 0.02085
0.16284 0.01398 0.60407 0.62579 0.31060 0.372 1580.518 0.02088
0.16303 0.01400 0.60477 0.62651 0.31242 0.505 1580.555 0.02090
0.16322 0.01402 0.60547 0.62724 0.31424 0.769 1580.592 0.02093
0.16341 0.01403 0.60616 0.62796 0.31606 0.505 1580.628 0.02095
0.16360 0.01405 0.60686 0.62868 0.31788 0.483 1580.665 0.02097
0.16378 0.01406 0.60756 0.62940 0.31971 0.814 1580.702 0.02100
0.16397 0.01408 0.60825 0.63012 0.32153 0.748 1580.738 0.02102
0.16416 0.01410 0.60895 0.63085 0.32335 0.483 1580.775 0.02104
0.16435 0.01411 0.60965 0.63157 0.32517 0.970 1580.812 0.02107
0.16453 0.01413 0.61034 0.63229 0.32699 0.793 1580.849 0.02109
0.16472 0.01415 0.61104 0.63301 0.32882 0.970 1580.885 0.02112
0.16491 0.01416 0.61174 0.63374 0.33064 1.125 1580.922 0.02114
0.16510 0.01418 0.61244 0.63446 0.33246 1.080 1580.959 0.02116
0.16529 0.01419 0.61313 0.63518 0.33428 0.926 1580.995 0.02119
0.16547 0.01421 0.61383 0.63590 0.33611 1.103 1581.032 0.02121
0.16566 0.01423 0.61453 0.63662 0.33793 1.125 1581.069 0.02123
0.16585 0.01424 0.61523 0.63735 0.33975 1.237 1581.106 0.02126
0.16604 0.01426 0.61592 0.63807 0.34157 0.906 1581.142 0.02128
0.16623 0.01427 0.61662 0.63879 0.34340 1.372 1581.179 0.02130
0.16641 0.01429 0.61732 0.63951 0.34522 0.906 1581.216 0.02133
0.16660 0.01431 0.61801 0.64024 0.34704 0.884 1581.252 0.02135
0.16679 0.01432 0.61871 0.64096 0.34887 1.018 1581.289 0.02138
0.16698 0.01434 0.61941 0.64168 0.35069 0.862 1581.326 0.02140
0.16717 0.01436 0.62011 0.64240 0.35251 1.124 1581.363 0.02142
0.16735 0.01437 0.62080 0.64313 0.35434 1.003 1581.399 0.02145
0.16754 0.01439 0.62150 0.64385 0.35616 0.918 1581.436 0.02147
0.16773 0.01440 0.62220 0.64457 0.35798 1.188 1581.473 0.02149
0.16792 0.01442 0.62290 0.64529 0.35981 0.869 1581.510 0.02152
0.16811 0.01444 0.62359 0.64602 0.36163 0.965 1581.546 0.02154
0.16829 0.01445 0.62429 0.64674 0.36345 0.700 1581.583 0.02157
0.16848 0.01447 0.62499 0.64746 0.36528 1.109 1581.620 0.02159
0.16867 0.01448 0.62569 0.64819 0.36710 0.913 1581.656 0.02161
0.16886 0.01450 0.62639 0.64891 0.36892 1.121 1581.693 0.02164
0.16905 0.01452 0.62708 0.64963 0.37075 1.161 1581.730 0.02166
0.16924 0.01453 0.62778 0.65035 0.37257 0.941 1581.767 0.02168
0.16942 0.01455 0.62848 0.65108 0.37440 1.164 1581.803 0.02171
0.16961 0.01457 0.62918 0.65180 0.37622 0.633 1581.840 0.02173
0.16980 0.01458 0.62987 0.65252 0.37804 0.977 1581.877 0.02176
0.16999 0.01460 0.63057 0.65325 0.37987 0.979 1581.913 0.02178
0.17018 0.01461 0.63127 0.65397 0.38169 1.093 1581.950 0.02180
0.17036 0.01463 0.63197 0.65469 0.38352 1.072 1581.987 0.02183
0.17055 0.01465 0.63267 0.65541 0.38534 1.183 1582.024 0.02185
0.17074 0.01466 0.63336 0.65614 0.38716 0.914 1582.060 0.02187
0.17093 0.01468 0.63406 0.65686 0.38899 1.161 1582.097 0.02190
0.17112 0.01469 0.63476 0.65758 0.39081 1.004 1582.134 0.02192
0.17130 0.01471 0.63546 0.65831 0.39264 0.960 1582.171 0.02195
0.17149 0.01473 0.63616 0.65903 0.39446 0.870 1582.207 0.02197
0.17168 0.01474 0.63685 0.65975 0.39629 0.982 1582.244 0.02199
0.17187 0.01476 0.63755 0.66048 0.39811 1.206 1582.281 0.02202
0.17206 0.01478 0.63825 0.66120 0.39994 1.005 1582.317 0.02204
0.17225 0.01479 0.63895 0.66192 0.40176 0.737 1582.354 0.02206
0.17243 0.01481 0.63965 0.66265 0.40359 1.006 1582.391 0.02209
0.17262 0.01482 0.64034 0.66337 0.40541 1.072 1582.428 0.02211
0.17281 0.01484 0.64104 0.66409 0.40724 1.139 1582.464 0.02213
0.17300 0.01486 0.64174 0.66482 0.40906 1.140 1582.501 0.02216
0.17319 0.01487 0.64244 0.66554 0.41089 0.938 1582.538 0.02218
0.17337 0.01489 0.64314 0.66626 0.41271 1.050 1582.574 0.02221
0.17356 0.01490 0.64383 0.66699 0.41454 1.140 1582.611 0.02223
0.17375 0.01492 0.64453 0.66771 0.41636 1.028 1582.648 0.02225
0.17394 0.01494 0.64523 0.66843 0.41819 1.052 1582.685 0.02228
0.17413 0.01495 0.64593 0.66916 0.42001 1.344 1582.721 0.02230
0.17432 0.01497 0.64663 0.66988 0.42184 0.873 1582.758 0.02232
0.17450 0.01499 0.64733 0.67060 0.42366 1.173 1582.795 0.02235
0.17469 0.01500 0.64803 0.67133 0.42549 0.943 1582.831 0.02237
0.17488 0.01502 0.64872 0.67205 0.42732 0.913 1582.868 0.02240
0.17507 0.01503 0.64942 0.67277 0.42914 1.259 1582.905 0.02242
0.17526 0.01505 0.65012 0.67350 0.43097 1.171 1582.942 0.02244
0.17545 0.01507 0.65082 0.67422 0.43279 1.140 1582.978 0.02247
0.17563 0.01508 0.65152 0.67494 0.43462 0.804 1583.015 0.02249
0.17582 0.01510 0.65222 0.67567 0.43645 0.803 1583.052 0.02251
0.17601 0.01511 0.65291 0.67639 0.43827 0.970 1583.089 0.02254
0.17620 0.01513 0.65361 0.67712 0.44010 0.763 1583.125 0.02256
0.17639 0.01515 0.65431 0.67784 0.44192 0.988 1583.162 0.02259
0.17658 0.01516 0.65501 0.67856 0.44375 0.802 1583.199 0.02261
0.17676 0.01518 0.65571 0.67929 0.44558 0.860 1583.235 0.02263
0.17695 0.01520 0.65641 0.68001 0.44740 1.001 1583.272 0.02266
0.17714 0.01521 0.65711 0.68073 0.44923 0.793 1583.309 0.02268
0.17733 0.01523 0.65781 0.68146 0.45106 1.021 1583.346 0.02270
0.17752 0.01524 0.65850 0.68218 0.45288 0.762 1583.382 0.02273
0.17771 0.01526 0.65920 0.68291 0.45471 1.330 1583.419 0.02275
0.17789 0.01528 0.65990 0.68363 0.45654 1.110 1583.456 0.02278
0.17808 0.01529 0.66060 0.68435 0.45836 1.061 1583.492 0.02280
0.17827 0.01531 0.66130 0.68508 0.46019 0.700 1583.529 0.02282
0.17846 0.01532 0.66200 0.68580 0.46202 1.265 1583.566 0.02285
0.17865 0.01534 0.66270 0.68653 0.46384 1.196 1583.603 0.02287
0.17884 0.01536 0.66340 0.68725 0.46567 0.859 1583.639 0.02289
0.17902 0.01537 0.66410 0.68797 0.46750 0.770 1583.676 0.02292
0.17921 0.01539 0.66479 0.68870 0.46933 0.838 1583.713 0.02294
0.17940 0.01541 0.66549 0.68942 0.47115 0.975 1583.749 0.02297
0.17959 0.01542 0.66619 0.69015 0.47298 0.976 1583.786 0.02299
0.17978 0.01544 0.66689 0.69087 0.47481 1.158 1583.823 0.02301
0.17997 0.01545 0.66759 0.69160 0.47663 1.046 1583.860 0.02304
0.18016 0.01547 0.66829 0.69232 0.47846 1.046 1583.896 0.02306
0.18034 0.01549 0.66899 0.69304 0.48029 0.979 1583.933 0.02308
0.18053 0.01550 0.66969 0.69377 0.48212 1.092 1583.970 0.02311
0.18072 0.01552 0.67039 0.69449 0.48394 0.956 1584.007 0.02313
0.18091 0.01554 0.67109 0.69522 0.48577 0.933 1584.043 0.02315
0.18110 0.01555 0.67179 0.69594 0.48760 1.046 1584.080 0.02318
0.18129 0.01557 0.67249 0.69667 0.48943 0.979 1584.117 0.02320
0.18147 0.01558 0.67318 0.69739 0.49126 1.003 1584.153 0.02323
0.18166 0.01560 0.67388 0.69811 0.49308 1.365 1584.190 0.02325
0.18185 0.01562 0.67458 0.69884 0.49491 1.184 1584.227 0.02327
0.18204 0.01563 0.67528 0.69956 0.49674 1.049 1584.264 0.02330
0.18223 0.01565 0.67598 0.70029 0.49857 1.026 1584.300 0.02332
0.18242 0.01566 0.67668 0.70101 0.50040 1.071 1584.337 0.02334
0.18261 0.01568 0.67738 0.70174 0.50222 0.935 1584.374 0.02337
0.18279 0.01570 0.67808 0.70246 0.50405 1.186 1584.410 0.02339
0.18298 0.01571 0.67878 0.70319 0.50588 0.891 1584.447 0.02342
0.18317 0.01573 0.67948 0.70391 0.50771 0.867 1584.484 0.02344
0.18336 0.01575 0.68018 0.70464 0.50954 0.890 1584.521 0.02346
0.18355 0.01576 0.68088 0.70536 0.51137 0.822 1584.557 0.02349
0.18374 0.01578 0.68158 0.70609 0.51320 0.844 1584.594 0.02351
0.18393 0.01579 0.68228 0.70681 0.51502 0.867 1584.631 0.02353
0.18411 0.01581 0.68298 0.70754 0.51685 1.117 1584.668 0.02356
0.18430 0.01583 0.68368 0.70826 0.51868 0.889 1584.704 0.02358
0.18449 0.01584 0.68438 0.70898 0.52051 0.934 1584.741 0.02361
0.18468 0.01586 0.68508 0.70971 0.52234 0.889 1584.778 0.02363
0.18487 0.01588 0.68578 0.71043 0.52417 0.708 1584.814 0.02365
0.18506 0.01589 0.68648 0.71116 0.52600 1.072 1584.851 0.02368
0.18525 0.01591 0.68718 0.71188 0.52783 1.230 1584.888 0.02370
0.18544 0.01592 0.68788 0.71261 0.52966 0.957 1584.925 0.02372
0.18562 0.01594 0.68857 0.71333 0.53149 1.184 1584.961 0.02375
0.18581 0.01596 0.68927 0.71406 0.53332 1.070 1584.998 0.02377
0.18600 0.01597 0.68997 0.71478 0.53514 0.683 1585.035 0.02380
0.18619 0.01599 0.69067 0.71551 0.53697 1.092 1585.071 0.02382
0.18638 0.01600 0.69137 0.71623 0.53880 0.910 1585.108 0.02384
0.18657 0.01602 0.69207 0.71696 0.54063 1.023 1585.145 0.02387
0.18676 0.01604 0.69277 0.71768 0.54246 0.977 1585.182 0.02389
0.18694 0.01605 0.69347 0.71841 0.54429 0.931 1585.218 0.02391
0.18713 0.01607 0.69417 0.71913 0.54612 1.113 1585.255 0.02394
0.18732 0.01609 0.69487 0.71986 0.54795 0.886 1585.292 0.02396
0.18751 0.01610 0.69557 0.72059 0.54978 0.771 1585.328 0.02399
0.18770 0.01612 0.69627 0.72131 0.55161 1.114 1585.365 0.02401
0.18789 0.01613 0.69697 0.72204 0.55344 0.954 1585.402 0.02403
0.18808 0.01615 0.69767 0.72276 0.55527 0.954 1585.439 0.02406
0.18827 0.01617 0.69837 0.72349 0.55710 1.045 1585.475 0.02408
0.18845 0.01618 0.69908 0.72421 0.55893 0.793 1585.512 0.02410
0.18864 0.01620 0.69978 0.72494 0.56076 1.044 1585.549 0.02413
0.18883 0.01622 0.70048 0.72566 0.56259 0.885 1585.586 0.02415
0.18902 0.01623 0.70118 0.72639 0.56442 0.977 1585.622 0.02417
0.18921 0.01625 0.70188 0.72711 0.56625 1.068 1585.659 0.02420
0.18940 0.01626 0.70258 0.72784 0.56809 1.114 1585.696 0.02422
0.18959 0.01628 0.70328 0.72856 0.56992 0.749 1585.732 0.02425
0.18978 0.01630 0.70398 0.72929 0.57175 0.841 1585.769 0.02427
0.18996 0.01631 0.70468 0.73002 0.57358 0.955 1585.806 0.02429
