x y z dist_scaled dist_frac flux_norm sig_norm wavelength redshift
-0.26917 0.03505 0.42279 0.50243 0.00000 0.999 0.080 1236.109 0.01681
-0.26956 0.03510 0.42342 0.50317 0.00188 0.918 0.076 1236.139 0.01684
-0.26996 0.03516 0.42404 0.50391 0.00375 0.881 0.076 1236.169 0.01686
-0.27036 0.03521 0.42467 0.50466 0.00563 0.954 0.078 1236.199 0.01689
-0.27076 0.03526 0.42530 0.50540 0.00750 0.948 0.078 1236.229 0.01691
-0.27116 0.03531 0.42592 0.50615 0.00938 1.005 0.080 1236.259 0.01694
-0.27156 0.03536 0.42655 0.50689 0.01126 0.929 0.077 1236.289 0.01696
-0.27196 0.03542 0.42718 0.50763 0.01313 0.884 0.075 1236.318 0.01699
-0.27235 0.03547 0.42780 0.50838 0.01501 1.017 0.080 1236.348 0.01701
-0.27275 0.03552 0.42843 0.50912 0.01689 0.942 0.077 1236.378 0.01703
-0.27315 0.03557 0.42905 0.50987 0.01876 1.041 0.081 1236.408 0.01706
-0.27355 0.03562 0.42968 0.51061 0.02064 0.915 0.076 1236.438 0.01708
-0.27395 0.03567 0.43031 0.51136 0.02252 1.135 0.085 1236.468 0.01711
-0.27435 0.03573 0.43093 0.51210 0.02440 0.891 0.075 1236.498 0.01713
-0.27475 0.03578 0.43156 0.51285 0.02627 0.991 0.079 1236.528 0.01716
-0.27515 0.03583 0.43219 0.51359 0.02815 0.891 0.075 1236.558 0.01718
-0.27554 0.03588 0.43281 0.51433 0.03003 1.022 0.081 1236.587 0.01721
-0.27594 0.03593 0.43344 0.51508 0.03190 1.048 0.082 1236.617 0.01723
-0.27634 0.03599 0.43407 0.51582 0.03378 1.035 0.081 1236.647 0.01726
-0.27674 0.03604 0.43469 0.51657 0.03566 1.040 0.081 1236.677 0.01728
-0.27714 0.03609 0.43532 0.51731 0.03754 1.078 0.083 1236.707 0.01730
-0.27754 0.03614 0.43595 0.51806 0.03941 1.040 0.081 1236.737 0.01733
-0.27794 0.03619 0.43657 0.51880 0.04129 1.084 0.083 1236.767 0.01735
-0.27834 0.03625 0.43720 0.51955 0.04317 0.976 0.079 1236.797 0.01738
-0.27874 0.03630 0.43783 0.52029 0.04505 0.945 0.077 1236.827 0.01740
-0.27914 0.03635 0.43845 0.52104 0.04692 0.957 0.078 1236.856 0.01743
-0.27953 0.03640 0.43908 0.52178 0.04880 1.007 0.080 1236.886 0.01745
-0.27993 0.03645 0.43971 0.52253 0.05068 0.882 0.075 1236.916 0.01748
-0.28033 0.03651 0.44033 0.52327 0.05256 0.994 0.079 1236.946 0.01750
-0.28073 0.03656 0.44096 0.52401 0.05444 0.913 0.076 1236.976 0.01753
-0.28113 0.03661 0.44159 0.52476 0.05631 1.051 0.082 1237.006 0.01755
-0.28153 0.03666 0.44221 0.52550 0.05819 1.032 0.081 1237.036 0.01758
-0.28193 0.03671 0.44284 0.52625 0.06007 0.983 0.079 1237.066 0.01760
-0.28233 0.03677 0.44347 0.52699 0.06195 1.038 0.081 1237.096 0.01762
-0.28273 0.03682 0.44409 0.52774 0.06383 0.872 0.074 1237.126 0.01765
-0.28313 0.03687 0.44472 0.52848 0.06571 0.977 0.079 1237.155 0.01767
-0.28352 0.03692 0.44535 0.52923 0.06758 0.968 0.078 1237.185 0.01770
-0.28392 0.03697 0.44597 0.52997 0.06946 0.925 0.076 1237.215 0.01772
-0.28432 0.03703 0.44660 0.53072 0.07134 0.947 0.077 1237.245 0.01775
-0.28472 0.03708 0.44723 0.53146 0.07322 0.991 0.079 1237.275 0.01777
-0.28512 0.03713 0.44786 0.53221 0.07510 1.011 0.080 1237.305 0.01780
-0.28552 0.03718 0.44848 0.53295 0.07698 1.063 0.082 1237.335 0.01782
-0.28592 0.03723 0.44911 0.53370 0.07886 0.954 0.078 1237.365 0.01785
-0.28632 0.03729 0.44974 0.53445 0.08074 1.045 0.081 1237.395 0.01787
-0.28672 0.03734 0.45036 0.53519 0.08261 0.900 0.075 1237.424 0.01790
-0.28712 0.03739 0.45099 0.53594 0.08449 1.019 0.080 1237.454 0.01792
-0.28752 0.03744 0.45162 0.53668 0.08637 1.144 0.085 1237.484 0.01794
-0.28792 0.03749 0.45224 0.53743 0.08825 1.029 0.081 1237.514 0.01797
-0.28832 0.03755 0.45287 0.53817 0.09013 0.925 0.076 1237.544 0.01799
-0.28871 0.03760 0.45350 0.53892 0.09201 1.160 0.086 1237.574 0.01802
-0.28911 0.03765 0.45413 0.53966 0.09389 0.916 0.076 1237.604 0.01804
-0.28951 0.03770 0.45475 0.54041 0.09577 1.052 0.081 1237.634 0.01807
-0.28991 0.03775 0.45538 0.54115 0.09765 1.064 0.082 1237.664 0.01809
-0.29031 0.03781 0.45601 0.54190 0.09953 1.125 0.084 1237.693 0.01812
-0.29071 0.03786 0.45664 0.54264 0.10141 0.882 0.075 1237.723 0.01814
-0.29111 0.03791 0.45726 0.54339 0.10329 0.908 0.076 1237.753 0.01817
-0.29151 0.03796 0.45789 0.54414 0.10517 1.165 0.086 1237.783 0.01819
-0.29191 0.03801 0.45852 0.54488 0.10705 0.940 0.077 1237.813 0.01821
-0.29231 0.03807 0.45915 0.54563 0.10893 0.946 0.077 1237.843 0.01824
-0.29271 0.03812 0.45977 0.54637 0.11081 1.076 0.082 1237.873 0.01826
-0.29311 0.03817 0.46040 0.54712 0.11269 0.989 0.079 1237.903 0.01829
-0.29351 0.03822 0.46103 0.54786 0.11457 1.013 0.080 1237.933 0.01831
-0.29391 0.03827 0.46166 0.54861 0.11645 0.897 0.075 1237.963 0.01834
-0.29431 0.03833 0.46228 0.54935 0.11833 0.997 0.079 1237.992 0.01836
-0.29471 0.03838 0.46291 0.55010 0.12021 0.987 0.079 1238.022 0.01839
-0.29511 0.03843 0.46354 0.55085 0.12209 0.954 0.078 1238.052 0.01841
-0.29551 0.03848 0.46417 0.55159 0.12397 0.904 0.075 1238.082 0.01844
-0.29590 0.03853 0.46479 0.55234 0.12585 0.993 0.079 1238.112 0.01846
-0.29630 0.03859 0.46542 0.55308 0.12773 0.889 0.075 1238.142 0.01849
-0.29670 0.03864 0.46605 0.55383 0.12961 0.936 0.077 1238.172 0.01851
-0.29710 0.03869 0.46668 0.55458 0.13149 1.066 0.082 1238.202 0.01853
-0.29750 0.03874 0.46730 0.55532 0.13337 1.010 0.080 1238.232 0.01856
-0.29790 0.03879 0.46793 0.55607 0.13526 1.027 0.080 1238.261 0.01858
-0.29830 0.03885 0.46856 0.55681 0.13714 0.962 0.078 1238.291 0.01861
-0.29870 0.03890 0.46919 0.55756 0.13902 0.860 0.074 1238.321 0.01863
-0.29910 0.03895 0.46981 0.55831 0.14090 0.945 0.077 1238.351 0.01866
-0.29950 0.03900 0.47044 0.55905 0.14278 0.972 0.078 1238.381 0.01868
-0.29990 0.03905 0.47107 0.55980 0.14466 0.918 0.076 1238.411 0.01871
-0.30030 0.03911 0.47170 0.56054 0.14654 0.855 0.073 1238.441 0.01873
-0.30070 0.03916 0.47233 0.56129 0.14842 0.811 0.071 1238.471 0.01876
-0.30110 0.03921 0.47295 0.56204 0.15031 0.824 0.072 1238.501 0.01878
-0.30150 0.03926 0.47358 0.56278 0.15219 0.749 0.069 1238.530 0.01880
-0.30190 0.03931 0.47421 0.56353 0.15407 0.774 0.073 1238.560 0.01883
-0.30230 0.03937 0.47484 0.56428 0.15595 0.762 0.069 1238.590 0.01885
-0.30270 0.03942 0.47547 0.56502 0.15783 0.805 0.071 1238.620 0.01888
-0.30310 0.03947 0.47609 0.56577 0.15971 0.699 0.066 1238.650 0.01890
-0.30350 0.03952 0.47672 0.56651 0.16160 0.855 0.073 1238.680 0.01893
-0.30390 0.03958 0.47735 0.56726 0.16348 0.756 0.069 1238.710 0.01895
-0.30430 0.03963 0.47798 0.56801 0.16536 0.880 0.074 1238.740 0.01898
-0.30470 0.03968 0.47861 0.56875 0.16724 0.885 0.075 1238.770 0.01900
-0.30510 0.03973 0.47923 0.56950 0.16912 0.824 0.072 1238.799 0.01903
-0.30550 0.03978 0.47986 0.57025 0.17101 0.898 0.075 1238.829 0.01905
-0.30590 0.03984 0.48049 0.57099 0.17289 0.934 0.077 1238.859 0.01908
-0.30630 0.03989 0.48112 0.57174 0.17477 0.890 0.075 1238.889 0.01910
-0.30670 0.03994 0.48175 0.57249 0.17665 1.065 0.082 1238.919 0.01912
-0.30710 0.03999 0.48238 0.57323 0.17854 1.008 0.079 1238.949 0.01915
-0.30750 0.04004 0.48300 0.57398 0.18042 1.071 0.082 1238.979 0.01917
-0.30790 0.04010 0.48363 0.57473 0.18230 1.001 0.079 1239.009 0.01920
-0.30830 0.04015 0.48426 0.57547 0.18418 0.956 0.077 1239.039 0.01922
-0.30870 0.04020 0.48489 0.57622 0.18607 0.973 0.078 1239.069 0.01925
-0.30910 0.04025 0.48552 0.57697 0.18795 1.076 0.082 1239.098 0.01927
-0.30950 0.04030 0.48615 0.57771 0.18983 0.854 0.073 1239.128 0.01930
-0.30990 0.04036 0.48677 0.57846 0.19172 0.964 0.078 1239.158 0.01932
-0.31030 0.04041 0.48740 0.57921 0.19360 0.904 0.075 1239.188 0.01935
-0.31070 0.04046 0.48803 0.57995 0.19548 1.020 0.080 1239.218 0.01937
-0.31110 0.04051 0.48866 0.58070 0.19737 0.899 0.075 1239.248 0.01939
-0.31150 0.04056 0.48929 0.58145 0.19925 0.751 0.069 1239.278 0.01942
-0.31190 0.04062 0.48992 0.58219 0.20113 0.788 0.074 1239.308 0.01944
-0.31230 0.04067 0.49055 0.58294 0.20302 0.890 0.075 1239.338 0.01947
-0.31270 0.04072 0.49117 0.58369 0.20490 0.834 0.072 1239.367 0.01949
-0.31310 0.04077 0.49180 0.58443 0.20678 0.895 0.075 1239.397 0.01952
-0.31350 0.04083 0.49243 0.58518 0.20867 0.796 0.071 1239.427 0.01954
-0.31390 0.04088 0.49306 0.58593 0.21055 0.906 0.075 1239.457 0.01957
-0.31430 0.04093 0.49369 0.58668 0.21243 0.888 0.075 1239.487 0.01959
-0.31470 0.04098 0.49432 0.58742 0.21432 1.003 0.079 1239.517 0.01962
-0.31510 0.04103 0.49495 0.58817 0.21620 0.833 0.072 1239.547 0.01964
-0.31550 0.04109 0.49557 0.58892 0.21809 0.975 0.078 1239.577 0.01967
-0.31590 0.04114 0.49620 0.58966 0.21997 0.899 0.075 1239.607 0.01969
-0.31630 0.04119 0.49683 0.59041 0.22185 1.023 0.080 1239.636 0.01971
-0.31670 0.04124 0.49746 0.59116 0.22374 0.858 0.073 1239.666 0.01974
-0.31710 0.04129 0.49809 0.59191 0.22562 1.092 0.083 1239.696 0.01976
-0.31750 0.04135 0.49872 0.59265 0.22751 0.988 0.079 1239.726 0.01979
-0.31790 0.04140 0.49935 0.59340 0.22939 0.901 0.075 1239.756 0.01981
-0.31830 0.04145 0.49998 0.59415 0.23127 0.914 0.076 1239.786 0.01984
-0.31870 0.04150 0.50061 0.59490 0.23316 1.029 0.080 1239.816 0.01986
-0.31910 0.04156 0.50123 0.59564 0.23504 0.739 0.068 1239.846 0.01989
-0.31950 0.04161 0.50186 0.59639 0.23693 0.857 0.073 1239.876 0.01991
-0.31991 0.04166 0.50249 0.59714 0.23881 0.949 0.077 1239.906 0.01994
-0.32031 0.04171 0.50312 0.59789 0.24070 1.054 0.081 1239.935 0.01996
-0.32071 0.04176 0.50375 0.59863 0.24258 0.962 0.077 1239.965 0.01999
-0.32111 0.04182 0.50438 0.59938 0.24447 0.832 0.072 1239.995 0.02001
-0.32151 0.04187 0.50501 0.60013 0.24635 0.887 0.074 1240.025 0.02003
-0.32191 0.04192 0.50564 0.60088 0.24824 0.745 0.072 1240.055 0.02006
-0.32231 0.04197 0.50627 0.60162 0.25012 0.905 0.075 1240.085 0.02008
-0.32271 0.04202 0.50690 0.60237 0.25201 0.985 0.078 1240.115 0.02011
-0.32311 0.04208 0.50752 0.60312 0.25389 0.966 0.078 1240.145 0.02013
-0.32351 0.04213 0.50815 0.60387 0.25578 0.961 0.077 1240.175 0.02016
-0.32391 0.04218 0.50878 0.60461 0.25766 0.972 0.078 1240.204 0.02018
-0.32431 0.04223 0.50941 0.60536 0.25955 1.120 0.084 1240.234 0.02021
-0.32471 0.04229 0.51004 0.60611 0.26143 1.133 0.084 1240.264 0.02023
-0.32511 0.04234 0.51067 0.60686 0.26332 0.946 0.077 1240.294 0.02026
-0.32551 0.04239 0.51130 0.60760 0.26521 0.879 0.074 1240.324 0.02028
-0.32591 0.04244 0.51193 0.60835 0.26709 1.046 0.081 1240.354 0.02030
-0.32631 0.04249 0.51256 0.60910 0.26898 1.091 0.082 1240.384 0.02033
-0.32671 0.04255 0.51319 0.60985 0.27086 0.883 0.074 1240.414 0.02035
-0.32712 0.04260 0.51382 0.61060 0.27275 0.975 0.078 1240.444 0.02038
-0.32752 0.04265 0.51445 0.61134 0.27463 1.056 0.081 1240.473 0.02040
-0.32792 0.04270 0.51508 0.61209 0.27652 1.091 0.082 1240.503 0.02043
-0.32832 0.04275 0.51571 0.61284 0.27841 0.997 0.079 1240.533 0.02045
-0.32872 0.04281 0.51634 0.61359 0.28029 1.009 0.079 1240.563 0.02048
-0.32912 0.04286 0.51696 0.61434 0.28218 0.879 0.074 1240.593 0.02050
-0.32952 0.04291 0.51759 0.61508 0.28407 1.006 0.079 1240.623 0.02053
-0.32992 0.04296 0.51822 0.61583 0.28595 0.992 0.079 1240.653 0.02055
-0.33032 0.04302 0.51885 0.61658 0.28784 1.037 0.080 1240.683 0.02058
-0.33072 0.04307 0.51948 0.61733 0.28972 0.932 0.076 1240.713 0.02060
-0.33112 0.04312 0.52011 0.61808 0.29161 1.161 0.085 1240.742 0.02062
-0.33152 0.04317 0.52074 0.61883 0.29350 1.010 0.079 1240.772 0.02065
-0.33193 0.04322 0.52137 0.61957 0.29538 0.867 0.073 1240.802 0.02067
-0.33233 0.04328 0.52200 0.62032 0.29727 0.977 0.078 1240.832 0.02070
-0.33273 0.04333 0.52263 0.62107 0.29916 1.087 0.082 1240.862 0.02072
-0.33313 0.04338 0.52326 0.62182 0.30105 0.984 0.078 1240.892 0.02075
-0.33353 0.04343 0.52389 0.62257 0.30293 1.139 0.084 1240.922 0.02077
-0.33393 0.04349 0.52452 0.62332 0.30482 1.214 0.087 1240.952 0.02080
-0.33433 0.04354 0.52515 0.62406 0.30671 1.165 0.085 1240.982 0.02082
-0.33473 0.04359 0.52578 0.62481 0.30859 1.012 0.079 1241.012 0.02085
-0.33513 0.04364 0.52641 0.62556 0.31048 0.960 0.077 1241.041 0.02087
-0.33553 0.04369 0.52704 0.62631 0.31237 0.985 0.078 1241.071 0.02089
-0.33593 0.04375 0.52767 0.62706 0.31426 1.123 0.084 1241.101 0.02092
-0.33634 0.04380 0.52830 0.62781 0.31614 1.124 0.084 1241.131 0.02094
-0.33674 0.04385 0.52893 0.62855 0.31803 0.961 0.077 1241.161 0.02097
-0.33714 0.04390 0.52956 0.62930 0.31992 1.170 0.085 1241.191 0.02099
-0.33754 0.04396 0.53019 0.63005 0.32181 0.981 0.078 1241.221 0.02102
-0.33794 0.04401 0.53082 0.63080 0.32369 1.044 0.081 1241.251 0.02104
-0.33834 0.04406 0.53145 0.63155 0.32558 1.007 0.079 1241.281 0.02107
-0.33874 0.04411 0.53208 0.63230 0.32747 0.756 0.069 1241.310 0.02109
-0.33914 0.04416 0.53271 0.63305 0.32936 0.955 0.077 1241.340 0.02112
-0.33954 0.04422 0.53334 0.63380 0.33125 0.907 0.075 1241.370 0.02114
-0.33995 0.04427 0.53397 0.63454 0.33313 1.013 0.079 1241.400 0.02117
-0.34035 0.04432 0.53460 0.63529 0.33502 0.936 0.076 1241.430 0.02119
-0.34075 0.04437 0.53523 0.63604 0.33691 1.071 0.082 1241.460 0.02121
-0.34115 0.04443 0.53586 0.63679 0.33880 1.004 0.079 1241.490 0.02124
-0.34155 0.04448 0.53649 0.63754 0.34069 1.017 0.079 1241.520 0.02126
-0.34195 0.04453 0.53712 0.63829 0.34257 0.920 0.076 1241.550 0.02129
-0.34235 0.04458 0.53775 0.63904 0.34446 1.104 0.083 1241.579 0.02131
-0.34275 0.04463 0.53838 0.63979 0.34635 0.980 0.078 1241.609 0.02134
-0.34316 0.04469 0.53901 0.64054 0.34824 1.011 0.079 1241.639 0.02136
-0.34356 0.04474 0.53964 0.64128 0.35013 0.931 0.076 1241.669 0.02139
-0.34396 0.04479 0.54027 0.64203 0.35202 0.979 0.078 1241.699 0.02141
-0.34436 0.04484 0.54090 0.64278 0.35391 1.016 0.079 1241.729 0.02144
-0.34476 0.04490 0.54153 0.64353 0.35580 0.943 0.076 1241.759 0.02146
-0.34516 0.04495 0.54216 0.64428 0.35768 0.950 0.077 1241.789 0.02149
-0.34556 0.04500 0.54279 0.64503 0.35957 1.072 0.081 1241.819 0.02151
-0.34596 0.04505 0.54342 0.64578 0.36146 1.144 0.084 1241.849 0.02153
-0.34637 0.04511 0.54405 0.64653 0.36335 0.979 0.078 1241.878 0.02156
-0.34677 0.04516 0.54469 0.64728 0.36524 1.047 0.081 1241.908 0.02158
-0.34717 0.04521 0.54532 0.64803 0.36713 0.943 0.076 1241.938 0.02161
-0.34757 0.04526 0.54595 0.64878 0.36902 0.887 0.074 1241.968 0.02163
-0.34797 0.04531 0.54658 0.64953 0.37091 1.052 0.081 1241.998 0.02166
-0.34837 0.04537 0.54721 0.65028 0.37280 0.881 0.074 1242.028 0.02168
-0.34877 0.04542 0.54784 0.65102 0.37469 0.906 0.075 1242.058 0.02171
-0.34918 0.04547 0.54847 0.65177 0.37658 0.955 0.077 1242.088 0.02173
-0.34958 0.04552 0.54910 0.65252 0.37847 0.857 0.073 1242.118 0.02176
-0.34998 0.04558 0.54973 0.65327 0.38036 0.783 0.070 1242.147 0.02178
-0.35038 0.04563 0.55036 0.65402 0.38225 0.735 0.067 1242.177 0.02180
-0.35078 0.04568 0.55099 0.65477 0.38414 0.747 0.068 1242.207 0.02183
-0.35118 0.04573 0.55162 0.65552 0.38603 0.827 0.072 1242.237 0.02185
-0.35159 0.04578 0.55225 0.65627 0.38792 0.703 0.066 1242.267 0.02188
-0.35199 0.04584 0.55288 0.65702 0.38981 0.672 0.064 1242.297 0.02190
-0.35239 0.04589 0.55351 0.65777 0.39170 0.605 0.065 1242.327 0.02193
-0.35279 0.04594 0.55415 0.65852 0.39359 0.562 0.063 1242.357 0.02195
-0.35319 0.04599 0.55478 0.65927 0.39548 0.465 0.065 1242.387 0.02198
-0.35359 0.04605 0.55541 0.66002 0.39737 0.520 0.064 1242.416 0.02200
-0.35399 0.04610 0.55604 0.66077 0.39926 0.458 0.065 1242.446 0.02203
-0.35440 0.04615 0.55667 0.66152 0.40115 0.459 0.065 1242.476 0.02205
-0.35480 0.04620 0.55730 0.66227 0.40304 0.397 0.057 1242.506 0.02208
-0.35520 0.04626 0.55793 0.66302 0.40493 0.299 0.054 1242.536 0.02210
-0.35560 0.04631 0.55856 0.66377 0.40682 0.220 0.048 1242.566 0.02212
-0.35600 0.04636 0.55919 0.66452 0.40871 0.306 0.055 1242.596 0.02215
-0.35640 0.04641 0.55982 0.66527 0.41060 0.330 0.056 1242.626 0.02217
-0.35681 0.04646 0.56046 0.66602 0.41249 0.386 0.060 1242.656 0.02220
-0.35721 0.04652 0.56109 0.66677 0.41438 0.471 0.065 1242.685 0.02222
-0.35761 0.04657 0.56172 0.66752 0.41627 0.563 0.066 1242.715 0.02225
-0.35801 0.04662 0.56235 0.66827 0.41817 0.649 0.066 1242.745 0.02227
-0.35841 0.04667 0.56298 0.66902 0.42006 0.857 0.073 1242.775 0.02230
-0.35882 0.04673 0.56361 0.66977 0.42195 0.942 0.076 1242.805 0.02232
-0.35922 0.04678 0.56424 0.67052 0.42384 0.940 0.076 1242.835 0.02235
-0.35962 0.04683 0.56487 0.67127 0.42573 0.990 0.078 1242.865 0.02237
-0.36002 0.04688 0.56550 0.67202 0.42762 1.069 0.081 1242.895 0.02239
-0.36042 0.04694 0.56614 0.67277 0.42951 0.928 0.076 1242.925 0.02242
-0.36083 0.04699 0.56677 0.67352 0.43141 1.123 0.083 1242.955 0.02244
-0.36123 0.04704 0.56740 0.67427 0.43330 0.927 0.076 1242.984 0.02247
-0.36163 0.04709 0.56803 0.67502 0.43519 0.890 0.074 1243.014 0.02249
-0.36203 0.04715 0.56866 0.67577 0.43708 1.030 0.080 1243.044 0.02252
-0.36243 0.04720 0.56929 0.67652 0.43897 0.951 0.077 1243.074 0.02254
-0.36283 0.04725 0.56992 0.67727 0.44086 0.891 0.074 1243.104 0.02257
-0.36324 0.04730 0.57055 0.67802 0.44276 0.982 0.078 1243.134 0.02259
-0.36364 0.04735 0.57119 0.67877 0.44465 0.920 0.075 1243.164 0.02262
-0.36404 0.04741 0.57182 0.67952 0.44654 1.036 0.080 1243.194 0.02264
-0.36444 0.04746 0.57245 0.68027 0.44843 0.956 0.077 1243.224 0.02267
-0.36484 0.04751 0.57308 0.68102 0.45032 1.006 0.079 1243.253 0.02269
-0.36525 0.04756 0.57371 0.68177 0.45222 0.975 0.078 1243.283 0.02271
-0.36565 0.04762 0.57434 0.68252 0.45411 1.023 0.079 1243.313 0.02274
-0.36605 0.04767 0.57498 0.68327 0.45600 1.023 0.079 1243.343 0.02276
-0.36645 0.04772 0.57561 0.68402 0.45789 0.962 0.077 1243.373 0.02279
-0.36686 0.04777 0.57624 0.68477 0.45979 0.993 0.078 1243.403 0.02281
-0.36726 0.04783 0.57687 0.68553 0.46168 0.980 0.078 1243.433 0.02284
-0.36766 0.04788 0.57750 0.68628 0.46357 0.944 0.076 1243.463 0.02286
-0.36806 0.04793 0.57813 0.68703 0.46546 0.878 0.073 1243.493 0.02289
-0.36846 0.04798 0.57877 0.68778 0.46736 0.968 0.077 1243.522 0.02291
-0.36887 0.04804 0.57940 0.68853 0.46925 1.053 0.080 1243.552 0.02294
-0.36927 0.04809 0.58003 0.68928 0.47114 1.163 0.085 1243.582 0.02296
-0.36967 0.04814 0.58066 0.69003 0.47304 1.035 0.080 1243.612 0.02298
-0.37007 0.04819 0.58129 0.69078 0.47493 0.893 0.074 1243.642 0.02301
-0.37047 0.04824 0.58192 0.69153 0.47682 1.028 0.080 1243.672 0.02303
-0.37088 0.04830 0.58256 0.69228 0.47872 1.010 0.079 1243.702 0.02306
-0.37128 0.04835 0.58319 0.69303 0.48061 0.955 0.077 1243.732 0.02308
-0.37168 0.04840 0.58382 0.69378 0.48250 0.967 0.077 1243.762 0.02311
-0.37208 0.04845 0.58445 0.69453 0.48440 0.967 0.077 1243.792 0.02313
-0.37249 0.04851 0.58508 0.69529 0.48629 1.113 0.083 1243.821 0.02316
-0.37289 0.04856 0.58572 0.69604 0.48818 0.852 0.072 1243.851 0.02318
-0.37329 0.04861 0.58635 0.69679 0.49008 1.107 0.082 1243.881 0.02321
-0.37369 0.04866 0.58698 0.69754 0.49197 1.040 0.080 1243.911 0.02323
-0.37410 0.04872 0.58761 0.69829 0.49386 1.016 0.079 1243.941 0.02326
-0.37450 0.04877 0.58824 0.69904 0.49576 1.022 0.079 1243.971 0.02328
-0.37490 0.04882 0.58888 0.69979 0.49765 0.972 0.077 1244.001 0.02330
-0.37530 0.04887 0.58951 0.70054 0.49955 1.009 0.079 1244.031 0.02333
-0.37571 0.04893 0.59014 0.70129 0.50144 1.059 0.081 1244.061 0.02335
-0.37611 0.04898 0.59077 0.70205 0.50333 0.949 0.076 1244.090 0.02338
-0.37651 0.04903 0.59140 0.70280 0.50523 1.228 0.087 1244.120 0.02340
-0.37691 0.04908 0.59204 0.70355 0.50712 1.016 0.079 1244.150 0.02343
-0.37732 0.04914 0.59267 0.70430 0.50902 1.143 0.084 1244.180 0.02345
-0.37772 0.04919 0.59330 0.70505 0.51091 0.924 0.075 1244.210 0.02348
-0.37812 0.04924 0.59393 0.70580 0.51281 0.997 0.078 1244.240 0.02350
-0.37852 0.04929 0.59457 0.70655 0.51470 0.862 0.073 1244.270 0.02353
-0.37893 0.04935 0.59520 0.70730 0.51660 1.117 0.083 1244.300 0.02355
-0.37933 0.04940 0.59583 0.70806 0.51849 1.056 0.080 1244.330 0.02358
-0.37973 0.04945 0.59646 0.70881 0.52038 0.939 0.076 1244.359 0.02360
-0.38013 0.04950 0.59709 0.70956 0.52228 0.994 0.078 1244.389 0.02362
-0.38054 0.04955 0.59773 0.71031 0.52417 0.994 0.078 1244.419 0.02365
-0.38094 0.04961 0.59836 0.71106 0.52607 1.122 0.083 1244.449 0.02367
-0.38134 0.04966 0.59899 0.71181 0.52796 0.956 0.077 1244.479 0.02370
-0.38174 0.04971 0.59962 0.71256 0.52986 1.067 0.081 1244.509 0.02372
-0.38215 0.04976 0.60026 0.71332 0.53175 0.970 0.077 1244.539 0.02375
-0.38255 0.04982 0.60089 0.71407 0.53365 1.212 0.086 1244.569 0.02377
