x y z dist_scaled dist_frac flux_norm sig_norm wavelength redshift
0.25485 -0.13996 0.40944 0.50218 0.00000 0.939 0.087 1236.099 0.01680
0.25523 -0.14017 0.41005 0.50292 0.00188 1.172 0.097 1236.129 0.01683
0.25561 -0.14038 0.41066 0.50367 0.00375 1.178 0.098 1236.159 0.01685
0.25599 -0.14058 0.41126 0.50441 0.00563 1.009 0.090 1236.189 0.01688
0.25636 -0.14079 0.41187 0.50515 0.00750 1.016 0.091 1236.219 0.01690
0.25674 -0.14100 0.41248 0.50590 0.00938 1.038 0.091 1236.249 0.01693
0.25712 -0.14120 0.41308 0.50664 0.01126 1.006 0.090 1236.279 0.01695
0.25750 -0.14141 0.41369 0.50739 0.01313 1.052 0.092 1236.308 0.01698
0.25787 -0.14162 0.41430 0.50813 0.01501 0.980 0.089 1236.338 0.01700
0.25825 -0.14183 0.41490 0.50888 0.01689 1.091 0.094 1236.368 0.01703
0.25863 -0.14203 0.41551 0.50962 0.01876 1.001 0.090 1236.398 0.01705
0.25901 -0.14224 0.41612 0.51036 0.02064 0.921 0.091 1236.428 0.01708
0.25938 -0.14245 0.41672 0.51111 0.02252 1.040 0.091 1236.458 0.01710
0.25976 -0.14266 0.41733 0.51185 0.02440 1.127 0.095 1236.488 0.01712
0.26014 -0.14286 0.41794 0.51260 0.02627 0.902 0.085 1236.518 0.01715
0.26052 -0.14307 0.41855 0.51334 0.02815 1.076 0.093 1236.548 0.01717
0.26090 -0.14328 0.41915 0.51409 0.03003 1.187 0.097 1236.577 0.01720
0.26127 -0.14349 0.41976 0.51483 0.03190 1.027 0.090 1236.607 0.01722
0.26165 -0.14369 0.42037 0.51558 0.03378 0.946 0.087 1236.637 0.01725
0.26203 -0.14390 0.42097 0.51632 0.03566 0.976 0.088 1236.667 0.01727
0.26241 -0.14411 0.42158 0.51706 0.03754 0.913 0.085 1236.697 0.01730
0.26278 -0.14432 0.42219 0.51781 0.03941 0.841 0.086 1236.727 0.01732
0.26316 -0.14452 0.42280 0.51855 0.04129 1.149 0.095 1236.757 0.01735
0.26354 -0.14473 0.42340 0.51930 0.04317 0.973 0.088 1236.787 0.01737
0.26392 -0.14494 0.42401 0.52004 0.04505 1.068 0.092 1236.817 0.01740
0.26430 -0.14515 0.42462 0.52079 0.04692 1.130 0.094 1236.847 0.01742
0.26467 -0.14535 0.42522 0.52153 0.04880 1.073 0.092 1236.876 0.01744
0.26505 -0.14556 0.42583 0.52228 0.05068 0.891 0.084 1236.906 0.01747
0.26543 -0.14577 0.42644 0.52302 0.05256 1.190 0.097 1236.936 0.01749
0.26581 -0.14598 0.42705 0.52377 0.05444 0.921 0.085 1236.966 0.01752
0.26619 -0.14618 0.42765 0.52451 0.05631 0.897 0.089 1236.996 0.01754
0.26656 -0.14639 0.42826 0.52526 0.05819 0.998 0.089 1237.026 0.01757
0.26694 -0.14660 0.42887 0.52600 0.06007 0.997 0.088 1237.056 0.01759
0.26732 -0.14681 0.42947 0.52675 0.06195 0.973 0.087 1237.086 0.01762
0.26770 -0.14702 0.43008 0.52749 0.06383 0.839 0.086 1237.116 0.01764
0.26808 -0.14722 0.43069 0.52824 0.06571 0.909 0.084 1237.145 0.01767
0.26845 -0.14743 0.43130 0.52898 0.06758 0.978 0.087 1237.175 0.01769
0.26883 -0.14764 0.43190 0.52973 0.06946 0.993 0.088 1237.205 0.01771
0.26921 -0.14785 0.43251 0.53047 0.07134 1.093 0.092 1237.235 0.01774
0.26959 -0.14805 0.43312 0.53122 0.07322 0.928 0.089 1237.265 0.01776
0.26997 -0.14826 0.43373 0.53196 0.07510 1.083 0.092 1237.295 0.01779
0.27035 -0.14847 0.43433 0.53271 0.07698 1.059 0.091 1237.325 0.01781
0.27072 -0.14868 0.43494 0.53345 0.07886 0.879 0.083 1237.355 0.01784
0.27110 -0.14888 0.43555 0.53420 0.08074 0.949 0.086 1237.385 0.01786
0.27148 -0.14909 0.43616 0.53494 0.08261 1.080 0.092 1237.414 0.01789
0.27186 -0.14930 0.43676 0.53569 0.08449 0.970 0.087 1237.444 0.01791
0.27224 -0.14951 0.43737 0.53643 0.08637 1.016 0.089 1237.474 0.01794
0.27261 -0.14972 0.43798 0.53718 0.08825 1.131 0.094 1237.504 0.01796
0.27299 -0.14992 0.43859 0.53792 0.09013 0.999 0.088 1237.534 0.01799
0.27337 -0.15013 0.43920 0.53867 0.09201 1.090 0.092 1237.564 0.01801
0.27375 -0.15034 0.43980 0.53941 0.09389 0.958 0.086 1237.594 0.01803
0.27413 -0.15055 0.44041 0.54016 0.09577 0.912 0.084 1237.624 0.01806
0.27451 -0.15075 0.44102 0.54090 0.09765 1.034 0.089 1237.654 0.01808
0.27488 -0.15096 0.44163 0.54165 0.09953 1.003 0.088 1237.684 0.01811
0.27526 -0.15117 0.44223 0.54240 0.10141 0.978 0.087 1237.713 0.01813
0.27564 -0.15138 0.44284 0.54314 0.10329 0.971 0.086 1237.743 0.01816
0.27602 -0.15158 0.44345 0.54389 0.10517 1.008 0.088 1237.773 0.01818
0.27640 -0.15179 0.44406 0.54463 0.10705 1.122 0.093 1237.803 0.01821
0.27678 -0.15200 0.44467 0.54538 0.10893 1.051 0.090 1237.833 0.01823
0.27715 -0.15221 0.44527 0.54612 0.11081 1.150 0.094 1237.863 0.01826
0.27753 -0.15242 0.44588 0.54687 0.11269 0.944 0.085 1237.893 0.01828
0.27791 -0.15262 0.44649 0.54761 0.11457 1.018 0.088 1237.923 0.01830
0.27829 -0.15283 0.44710 0.54836 0.11645 0.918 0.084 1237.953 0.01833
0.27867 -0.15304 0.44771 0.54911 0.11833 1.001 0.087 1237.982 0.01835
0.27905 -0.15325 0.44831 0.54985 0.12021 0.939 0.085 1238.012 0.01838
0.27942 -0.15346 0.44892 0.55060 0.12209 0.985 0.087 1238.042 0.01840
0.27980 -0.15366 0.44953 0.55134 0.12397 1.098 0.092 1238.072 0.01843
0.28018 -0.15387 0.45014 0.55209 0.12585 1.074 0.090 1238.102 0.01845
0.28056 -0.15408 0.45075 0.55284 0.12773 0.952 0.085 1238.132 0.01848
0.28094 -0.15429 0.45135 0.55358 0.12961 1.019 0.088 1238.162 0.01850
0.28132 -0.15449 0.45196 0.55433 0.13149 1.057 0.090 1238.192 0.01853
0.28170 -0.15470 0.45257 0.55507 0.13337 1.047 0.089 1238.222 0.01855
0.28207 -0.15491 0.45318 0.55582 0.13526 0.911 0.083 1238.251 0.01858
0.28245 -0.15512 0.45379 0.55656 0.13714 0.933 0.084 1238.281 0.01860
0.28283 -0.15533 0.45440 0.55731 0.13902 1.060 0.090 1238.311 0.01862
0.28321 -0.15553 0.45500 0.55806 0.14090 0.916 0.083 1238.341 0.01865
0.28359 -0.15574 0.45561 0.55880 0.14278 0.953 0.085 1238.371 0.01867
0.28397 -0.15595 0.45622 0.55955 0.14466 0.984 0.086 1238.401 0.01870
0.28435 -0.15616 0.45683 0.56030 0.14654 1.043 0.089 1238.431 0.01872
0.28473 -0.15637 0.45744 0.56104 0.14842 1.057 0.089 1238.461 0.01875
0.28510 -0.15657 0.45805 0.56179 0.15031 0.913 0.083 1238.491 0.01877
0.28548 -0.15678 0.45865 0.56253 0.15219 1.003 0.087 1238.521 0.01880
0.28586 -0.15699 0.45926 0.56328 0.15407 0.950 0.085 1238.550 0.01882
0.28624 -0.15720 0.45987 0.56403 0.15595 0.844 0.080 1238.580 0.01885
0.28662 -0.15741 0.46048 0.56477 0.15783 0.874 0.081 1238.610 0.01887
0.28700 -0.15761 0.46109 0.56552 0.15971 0.911 0.083 1238.640 0.01889
0.28738 -0.15782 0.46170 0.56627 0.16160 0.911 0.083 1238.670 0.01892
0.28775 -0.15803 0.46230 0.56701 0.16348 0.760 0.076 1238.700 0.01894
0.28813 -0.15824 0.46291 0.56776 0.16536 0.961 0.085 1238.730 0.01897
0.28851 -0.15845 0.46352 0.56850 0.16724 1.073 0.090 1238.760 0.01899
0.28889 -0.15865 0.46413 0.56925 0.16912 0.916 0.083 1238.790 0.01902
0.28927 -0.15886 0.46474 0.57000 0.17101 0.960 0.085 1238.819 0.01904
0.28965 -0.15907 0.46535 0.57074 0.17289 0.914 0.083 1238.849 0.01907
0.29003 -0.15928 0.46596 0.57149 0.17477 0.957 0.085 1238.879 0.01909
0.29041 -0.15949 0.46657 0.57224 0.17665 0.913 0.083 1238.909 0.01912
0.29079 -0.15969 0.46717 0.57298 0.17854 1.017 0.087 1238.939 0.01914
0.29116 -0.15990 0.46778 0.57373 0.18042 0.807 0.078 1238.969 0.01917
0.29154 -0.16011 0.46839 0.57448 0.18230 0.777 0.081 1238.999 0.01919
0.29192 -0.16032 0.46900 0.57522 0.18418 0.799 0.077 1239.029 0.01921
0.29230 -0.16053 0.46961 0.57597 0.18607 0.910 0.082 1239.059 0.01924
0.29268 -0.16073 0.47022 0.57672 0.18795 0.894 0.082 1239.088 0.01926
0.29306 -0.16094 0.47083 0.57746 0.18983 0.976 0.085 1239.118 0.01929
0.29344 -0.16115 0.47144 0.57821 0.19172 0.842 0.079 1239.148 0.01931
0.29382 -0.16136 0.47204 0.57896 0.19360 0.878 0.081 1239.178 0.01934
0.29420 -0.16157 0.47265 0.57970 0.19548 1.144 0.092 1239.208 0.01936
0.29458 -0.16178 0.47326 0.58045 0.19737 0.803 0.081 1239.238 0.01939
0.29495 -0.16198 0.47387 0.58120 0.19925 0.950 0.084 1239.268 0.01941
0.29533 -0.16219 0.47448 0.58194 0.20113 0.847 0.079 1239.298 0.01944
0.29571 -0.16240 0.47509 0.58269 0.20302 1.016 0.087 1239.328 0.01946
0.29609 -0.16261 0.47570 0.58344 0.20490 0.971 0.085 1239.357 0.01949
0.29647 -0.16282 0.47631 0.58419 0.20678 0.962 0.084 1239.387 0.01951
0.29685 -0.16302 0.47692 0.58493 0.20867 1.013 0.087 1239.417 0.01953
0.29723 -0.16323 0.47753 0.58568 0.21055 0.821 0.078 1239.447 0.01956
0.29761 -0.16344 0.47813 0.58643 0.21243 0.938 0.083 1239.477 0.01958
0.29799 -0.16365 0.47874 0.58717 0.21432 1.078 0.089 1239.507 0.01961
0.29837 -0.16386 0.47935 0.58792 0.21620 0.944 0.083 1239.537 0.01963
0.29875 -0.16407 0.47996 0.58867 0.21809 1.010 0.086 1239.567 0.01966
0.29912 -0.16427 0.48057 0.58942 0.21997 0.958 0.084 1239.597 0.01968
0.29950 -0.16448 0.48118 0.59016 0.22185 1.010 0.086 1239.627 0.01971
0.29988 -0.16469 0.48179 0.59091 0.22374 0.935 0.083 1239.656 0.01973
0.30026 -0.16490 0.48240 0.59166 0.22562 0.943 0.083 1239.686 0.01976
0.30064 -0.16511 0.48301 0.59240 0.22751 0.853 0.079 1239.716 0.01978
0.30102 -0.16532 0.48362 0.59315 0.22939 0.991 0.085 1239.746 0.01980
0.30140 -0.16552 0.48423 0.59390 0.23127 0.859 0.083 1239.776 0.01983
0.30178 -0.16573 0.48484 0.59465 0.23316 0.969 0.084 1239.806 0.01985
0.30216 -0.16594 0.48545 0.59539 0.23504 0.894 0.081 1239.836 0.01988
0.30254 -0.16615 0.48606 0.59614 0.23693 1.019 0.086 1239.866 0.01990
0.30292 -0.16636 0.48666 0.59689 0.23881 0.974 0.084 1239.896 0.01993
0.30330 -0.16657 0.48727 0.59764 0.24070 0.895 0.081 1239.925 0.01995
0.30368 -0.16677 0.48788 0.59838 0.24258 0.938 0.083 1239.955 0.01998
0.30406 -0.16698 0.48849 0.59913 0.24447 1.001 0.086 1239.985 0.02000
0.30443 -0.16719 0.48910 0.59988 0.24635 1.140 0.091 1240.015 0.02003
0.30481 -0.16740 0.48971 0.60063 0.24824 0.882 0.080 1240.045 0.02005
0.30519 -0.16761 0.49032 0.60137 0.25012 1.054 0.088 1240.075 0.02008
0.30557 -0.16782 0.49093 0.60212 0.25201 0.891 0.081 1240.105 0.02010
0.30595 -0.16802 0.49154 0.60287 0.25389 0.893 0.081 1240.135 0.02012
0.30633 -0.16823 0.49215 0.60362 0.25578 0.940 0.083 1240.165 0.02015
0.30671 -0.16844 0.49276 0.60436 0.25766 0.824 0.077 1240.194 0.02017
0.30709 -0.16865 0.49337 0.60511 0.25955 0.940 0.083 1240.224 0.02020
0.30747 -0.16886 0.49398 0.60586 0.26143 0.936 0.083 1240.254 0.02022
0.30785 -0.16907 0.49459 0.60661 0.26332 0.914 0.082 1240.284 0.02025
0.30823 -0.16927 0.49520 0.60736 0.26521 0.842 0.078 1240.314 0.02027
0.30861 -0.16948 0.49581 0.60810 0.26709 0.893 0.081 1240.344 0.02030
0.30899 -0.16969 0.49642 0.60885 0.26898 1.008 0.086 1240.374 0.02032
0.30937 -0.16990 0.49703 0.60960 0.27086 1.025 0.086 1240.404 0.02035
0.30975 -0.17011 0.49764 0.61035 0.27275 1.161 0.092 1240.434 0.02037
0.31013 -0.17032 0.49825 0.61109 0.27463 0.980 0.084 1240.464 0.02039
0.31051 -0.17052 0.49886 0.61184 0.27652 0.863 0.083 1240.493 0.02042
0.31089 -0.17073 0.49947 0.61259 0.27841 0.956 0.083 1240.523 0.02044
0.31127 -0.17094 0.50008 0.61334 0.28029 1.015 0.086 1240.553 0.02047
0.31165 -0.17115 0.50069 0.61409 0.28218 0.998 0.085 1240.583 0.02049
0.31203 -0.17136 0.50130 0.61484 0.28407 1.135 0.091 1240.613 0.02052
0.31240 -0.17157 0.50191 0.61558 0.28595 0.968 0.084 1240.643 0.02054
0.31278 -0.17178 0.50252 0.61633 0.28784 1.026 0.086 1240.673 0.02057
0.31316 -0.17198 0.50313 0.61708 0.28972 1.134 0.090 1240.703 0.02059
0.31354 -0.17219 0.50374 0.61783 0.29161 0.975 0.084 1240.733 0.02062
0.31392 -0.17240 0.50435 0.61858 0.29350 0.989 0.084 1240.762 0.02064
0.31430 -0.17261 0.50496 0.61932 0.29538 0.865 0.079 1240.792 0.02067
0.31468 -0.17282 0.50557 0.62007 0.29727 0.844 0.078 1240.822 0.02069
0.31506 -0.17303 0.50618 0.62082 0.29916 0.851 0.078 1240.852 0.02071
0.31544 -0.17324 0.50679 0.62157 0.30105 0.878 0.080 1240.882 0.02074
0.31582 -0.17344 0.50740 0.62232 0.30293 0.936 0.082 1240.912 0.02076
0.31620 -0.17365 0.50801 0.62307 0.30482 1.087 0.088 1240.942 0.02079
0.31658 -0.17386 0.50862 0.62381 0.30671 1.042 0.092 1240.972 0.02081
0.31696 -0.17407 0.50923 0.62456 0.30859 1.165 0.092 1241.002 0.02084
0.31734 -0.17428 0.50984 0.62531 0.31048 0.870 0.079 1241.031 0.02086
0.31772 -0.17449 0.51045 0.62606 0.31237 0.984 0.084 1241.061 0.02089
0.31810 -0.17470 0.51106 0.62681 0.31426 0.999 0.085 1241.091 0.02091
0.31848 -0.17490 0.51167 0.62756 0.31614 1.042 0.086 1241.121 0.02094
0.31886 -0.17511 0.51228 0.62831 0.31803 1.048 0.087 1241.151 0.02096
0.31924 -0.17532 0.51289 0.62905 0.31992 0.961 0.083 1241.181 0.02099
0.31962 -0.17553 0.51350 0.62980 0.32181 1.019 0.085 1241.211 0.02101
0.32000 -0.17574 0.51411 0.63055 0.32369 0.818 0.077 1241.241 0.02103
0.32038 -0.17595 0.51472 0.63130 0.32558 0.825 0.077 1241.271 0.02106
0.32076 -0.17616 0.51533 0.63205 0.32747 0.767 0.078 1241.300 0.02108
0.32114 -0.17636 0.51594 0.63280 0.32936 0.917 0.081 1241.330 0.02111
0.32152 -0.17657 0.51655 0.63355 0.33124 0.825 0.077 1241.360 0.02113
0.32190 -0.17678 0.51716 0.63429 0.33313 0.862 0.079 1241.390 0.02116
0.32228 -0.17699 0.51777 0.63504 0.33502 0.924 0.081 1241.420 0.02118
0.32266 -0.17720 0.51838 0.63579 0.33691 0.778 0.078 1241.450 0.02121
0.32304 -0.17741 0.51899 0.63654 0.33880 1.011 0.085 1241.480 0.02123
0.32342 -0.17762 0.51961 0.63729 0.34069 0.943 0.082 1241.510 0.02126
0.32380 -0.17783 0.52022 0.63804 0.34257 0.933 0.082 1241.540 0.02128
0.32418 -0.17803 0.52083 0.63879 0.34446 0.975 0.083 1241.570 0.02130
0.32456 -0.17824 0.52144 0.63954 0.34635 0.899 0.080 1241.599 0.02133
0.32494 -0.17845 0.52205 0.64029 0.34824 1.081 0.088 1241.629 0.02135
0.32532 -0.17866 0.52266 0.64104 0.35013 0.973 0.083 1241.659 0.02138
0.32570 -0.17887 0.52327 0.64178 0.35202 0.950 0.082 1241.689 0.02140
0.32608 -0.17908 0.52388 0.64253 0.35391 0.993 0.084 1241.719 0.02143
0.32646 -0.17929 0.52449 0.64328 0.35580 0.841 0.077 1241.749 0.02145
0.32684 -0.17950 0.52510 0.64403 0.35768 1.001 0.084 1241.779 0.02148
0.32722 -0.17970 0.52571 0.64478 0.35957 0.971 0.083 1241.809 0.02150
0.32760 -0.17991 0.52632 0.64553 0.36146 1.048 0.086 1241.839 0.02153
0.32798 -0.18012 0.52693 0.64628 0.36335 0.876 0.079 1241.868 0.02155
0.32836 -0.18033 0.52755 0.64703 0.36524 0.926 0.081 1241.898 0.02158
0.32874 -0.18054 0.52816 0.64778 0.36713 0.954 0.082 1241.928 0.02160
0.32912 -0.18075 0.52877 0.64853 0.36902 1.047 0.086 1241.958 0.02162
0.32950 -0.18096 0.52938 0.64928 0.37091 1.242 0.094 1241.988 0.02165
0.32988 -0.18117 0.52999 0.65003 0.37280 1.045 0.086 1242.018 0.02167
0.33026 -0.18138 0.53060 0.65077 0.37469 1.091 0.088 1242.048 0.02170
0.33064 -0.18158 0.53121 0.65152 0.37658 1.022 0.085 1242.078 0.02172
0.33102 -0.18179 0.53182 0.65227 0.37847 1.005 0.084 1242.108 0.02175
0.33141 -0.18200 0.53243 0.65302 0.38036 0.947 0.082 1242.137 0.02177
0.33179 -0.18221 0.53304 0.65377 0.38225 0.930 0.081 1242.167 0.02180
0.33217 -0.18242 0.53366 0.65452 0.38414 0.948 0.082 1242.197 0.02182
0.33255 -0.18263 0.53427 0.65527 0.38603 1.017 0.085 1242.227 0.02185
0.33293 -0.18284 0.53488 0.65602 0.38792 1.157 0.090 1242.257 0.02187
0.33331 -0.18305 0.53549 0.65677 0.38981 0.903 0.080 1242.287 0.02189
0.33369 -0.18326 0.53610 0.65752 0.39170 1.124 0.089 1242.317 0.02192
0.33407 -0.18346 0.53671 0.65827 0.39359 1.045 0.086 1242.347 0.02194
0.33445 -0.18367 0.53732 0.65902 0.39548 1.005 0.084 1242.377 0.02197
0.33483 -0.18388 0.53793 0.65977 0.39737 0.992 0.084 1242.407 0.02199
0.33521 -0.18409 0.53854 0.66052 0.39926 0.984 0.083 1242.436 0.02202
0.33559 -0.18430 0.53916 0.66127 0.40115 0.900 0.084 1242.466 0.02204
0.33597 -0.18451 0.53977 0.66202 0.40304 0.962 0.082 1242.496 0.02207
0.33635 -0.18472 0.54038 0.66277 0.40493 1.026 0.085 1242.526 0.02209
0.33673 -0.18493 0.54099 0.66352 0.40682 1.083 0.087 1242.556 0.02212
0.33711 -0.18514 0.54160 0.66427 0.40871 1.006 0.084 1242.586 0.02214
0.33749 -0.18535 0.54221 0.66502 0.41060 0.976 0.083 1242.616 0.02217
0.33787 -0.18555 0.54282 0.66577 0.41249 0.913 0.080 1242.646 0.02219
0.33825 -0.18576 0.54344 0.66652 0.41438 0.982 0.083 1242.676 0.02221
0.33863 -0.18597 0.54405 0.66727 0.41627 0.955 0.082 1242.705 0.02224
0.33901 -0.18618 0.54466 0.66802 0.41817 0.926 0.081 1242.735 0.02226
0.33940 -0.18639 0.54527 0.66877 0.42006 1.116 0.089 1242.765 0.02229
0.33978 -0.18660 0.54588 0.66952 0.42195 0.827 0.076 1242.795 0.02231
0.34016 -0.18681 0.54649 0.67027 0.42384 0.790 0.075 1242.825 0.02234
0.34054 -0.18702 0.54711 0.67102 0.42573 0.854 0.078 1242.855 0.02236
0.34092 -0.18723 0.54772 0.67177 0.42762 0.916 0.080 1242.885 0.02239
0.34130 -0.18744 0.54833 0.67252 0.42951 1.023 0.085 1242.915 0.02241
0.34168 -0.18764 0.54894 0.67327 0.43141 0.952 0.082 1242.945 0.02244
0.34206 -0.18785 0.54955 0.67402 0.43330 0.888 0.079 1242.974 0.02246
0.34244 -0.18806 0.55016 0.67477 0.43519 0.859 0.078 1243.004 0.02249
0.34282 -0.18827 0.55077 0.67552 0.43708 0.880 0.083 1243.034 0.02251
0.34320 -0.18848 0.55139 0.67627 0.43897 0.761 0.073 1243.064 0.02253
0.34358 -0.18869 0.55200 0.67702 0.44086 0.739 0.076 1243.094 0.02256
0.34396 -0.18890 0.55261 0.67777 0.44276 0.774 0.078 1243.124 0.02258
0.34434 -0.18911 0.55322 0.67852 0.44465 0.838 0.077 1243.154 0.02261
0.34473 -0.18932 0.55383 0.67927 0.44654 0.825 0.076 1243.184 0.02263
0.34511 -0.18953 0.55445 0.68002 0.44843 0.683 0.069 1243.214 0.02266
0.34549 -0.18974 0.55506 0.68077 0.45032 0.712 0.075 1243.243 0.02268
0.34587 -0.18994 0.55567 0.68152 0.45222 0.605 0.074 1243.273 0.02271
0.34625 -0.19015 0.55628 0.68227 0.45411 0.465 0.070 1243.303 0.02273
0.34663 -0.19036 0.55689 0.68302 0.45600 0.542 0.075 1243.333 0.02276
0.34701 -0.19057 0.55751 0.68377 0.45789 0.508 0.073 1243.363 0.02278
0.34739 -0.19078 0.55812 0.68452 0.45979 0.437 0.069 1243.393 0.02280
0.34777 -0.19099 0.55873 0.68527 0.46168 0.444 0.069 1243.423 0.02283
0.34815 -0.19120 0.55934 0.68603 0.46357 0.535 0.074 1243.453 0.02285
0.34853 -0.19141 0.55995 0.68678 0.46546 0.654 0.068 1243.483 0.02288
0.34892 -0.19162 0.56057 0.68753 0.46736 0.731 0.076 1243.513 0.02290
0.34930 -0.19183 0.56118 0.68828 0.46925 0.760 0.077 1243.542 0.02293
0.34968 -0.19204 0.56179 0.68903 0.47114 0.753 0.073 1243.572 0.02295
0.35006 -0.19225 0.56240 0.68978 0.47304 0.921 0.080 1243.602 0.02298
0.35044 -0.19246 0.56301 0.69053 0.47493 0.780 0.074 1243.632 0.02300
0.35082 -0.19266 0.56363 0.69128 0.47682 0.872 0.078 1243.662 0.02303
0.35120 -0.19287 0.56424 0.69203 0.47872 0.970 0.082 1243.692 0.02305
0.35158 -0.19308 0.56485 0.69278 0.48061 0.899 0.079 1243.722 0.02308
0.35196 -0.19329 0.56546 0.69353 0.48250 1.122 0.089 1243.752 0.02310
0.35234 -0.19350 0.56607 0.69428 0.48440 1.145 0.090 1243.782 0.02312
0.35273 -0.19371 0.56669 0.69504 0.48629 0.970 0.082 1243.811 0.02315
0.35311 -0.19392 0.56730 0.69579 0.48818 1.035 0.085 1243.841 0.02317
0.35349 -0.19413 0.56791 0.69654 0.49008 1.063 0.086 1243.871 0.02320
0.35387 -0.19434 0.56852 0.69729 0.49197 0.849 0.077 1243.901 0.02322
0.35425 -0.19455 0.56914 0.69804 0.49386 0.979 0.083 1243.931 0.02325
0.35463 -0.19476 0.56975 0.69879 0.49576 0.951 0.082 1243.961 0.02327
0.35501 -0.19497 0.57036 0.69954 0.49765 0.926 0.081 1243.991 0.02330
0.35539 -0.19518 0.57097 0.70029 0.49955 1.006 0.084 1244.021 0.02332
0.35578 -0.19539 0.57159 0.70104 0.50144 0.941 0.081 1244.051 0.02335
0.35616 -0.19560 0.57220 0.70179 0.50333 1.042 0.085 1244.080 0.02337
0.35654 -0.19580 0.57281 0.70255 0.50523 1.007 0.084 1244.110 0.02339
0.35692 -0.19601 0.57342 0.70330 0.50712 0.975 0.083 1244.140 0.02342
0.35730 -0.19622 0.57404 0.70405 0.50902 0.936 0.081 1244.170 0.02344
0.35768 -0.19643 0.57465 0.70480 0.51091 0.947 0.081 1244.200 0.02347
0.35806 -0.19664 0.57526 0.70555 0.51281 1.052 0.086 1244.230 0.02349
0.35844 -0.19685 0.57587 0.70630 0.51470 1.158 0.090 1244.260 0.02352
0.35883 -0.19706 0.57649 0.70705 0.51660 1.109 0.088 1244.290 0.02354
0.35921 -0.19727 0.57710 0.70781 0.51849 1.052 0.086 1244.320 0.02357
0.35959 -0.19748 0.57771 0.70856 0.52038 0.919 0.080 1244.350 0.02359
0.35997 -0.19769 0.57832 0.70931 0.52228 1.151 0.090 1244.379 0.02362
0.36035 -0.19790 0.57894 0.71006 0.52417 1.024 0.085 1244.409 0.02364
0.36073 -0.19811 0.57955 0.71081 0.52607 0.954 0.082 1244.439 0.02367
0.36111 -0.19832 0.58016 0.71156 0.52796 0.989 0.083 1244.469 0.02369
0.36150 -0.19853 0.58078 0.71231 0.52986 1.046 0.085 1244.499 0.02371
0.36188 -0.19874 0.58139 0.71307 0.53175 1.382 0.098 1244.529 0.02374
0.36226 -0.19895 0.58200 0.71382 0.53365 0.884 0.079 1244.559 0.02376
