x y z dist_scaled dist_frac flux_norm sig_norm wavelength redshift
-0.04864 -0.19442 0.46099 0.50267 0.00000 0.979 0.012 1236.119 0.01682
-0.04871 -0.19471 0.46168 0.50342 0.00188 1.005 0.012 1236.149 0.01685
-0.04879 -0.19500 0.46236 0.50416 0.00376 0.980 0.012 1236.179 0.01687
-0.04886 -0.19528 0.46304 0.50491 0.00564 0.978 0.012 1236.209 0.01690
-0.04893 -0.19557 0.46372 0.50565 0.00752 0.985 0.012 1236.239 0.01692
-0.04900 -0.19586 0.46441 0.50639 0.00940 0.973 0.012 1236.269 0.01694
-0.04907 -0.19615 0.46509 0.50714 0.01128 0.988 0.012 1236.299 0.01697
-0.04915 -0.19644 0.46577 0.50788 0.01316 0.983 0.012 1236.328 0.01699
-0.04922 -0.19672 0.46645 0.50863 0.01504 0.983 0.012 1236.358 0.01702
-0.04929 -0.19701 0.46714 0.50937 0.01692 0.989 0.012 1236.388 0.01704
-0.04936 -0.19730 0.46782 0.51012 0.01880 0.965 0.012 1236.418 0.01707
-0.04943 -0.19759 0.46850 0.51086 0.02068 0.971 0.012 1236.448 0.01709
-0.04951 -0.19788 0.46918 0.51160 0.02256 0.992 0.012 1236.478 0.01712
-0.04958 -0.19816 0.46987 0.51235 0.02444 0.950 0.012 1236.508 0.01714
-0.04965 -0.19845 0.47055 0.51309 0.02632 1.006 0.013 1236.538 0.01717
-0.04972 -0.19874 0.47123 0.51384 0.02820 0.947 0.013 1236.568 0.01719
-0.04979 -0.19903 0.47192 0.51458 0.03008 0.991 0.013 1236.597 0.01721
-0.04987 -0.19931 0.47260 0.51533 0.03196 0.970 0.013 1236.627 0.01724
-0.04994 -0.19960 0.47328 0.51607 0.03385 0.993 0.013 1236.657 0.01726
-0.05001 -0.19989 0.47396 0.51682 0.03573 0.990 0.013 1236.687 0.01729
-0.05008 -0.20018 0.47465 0.51756 0.03761 0.972 0.013 1236.717 0.01731
-0.05015 -0.20047 0.47533 0.51831 0.03949 0.977 0.013 1236.747 0.01734
-0.05023 -0.20075 0.47601 0.51905 0.04137 0.964 0.013 1236.777 0.01736
-0.05030 -0.20104 0.47670 0.51979 0.04325 0.977 0.013 1236.807 0.01739
-0.05037 -0.20133 0.47738 0.52054 0.04513 0.990 0.013 1236.837 0.01741
-0.05044 -0.20162 0.47806 0.52128 0.04701 0.993 0.013 1236.866 0.01744
-0.05051 -0.20191 0.47874 0.52203 0.04890 0.992 0.013 1236.896 0.01746
-0.05059 -0.20219 0.47943 0.52277 0.05078 0.974 0.013 1236.926 0.01749
-0.05066 -0.20248 0.48011 0.52352 0.05266 0.955 0.013 1236.956 0.01751
-0.05073 -0.20277 0.48079 0.52426 0.05454 0.979 0.013 1236.986 0.01753
-0.05080 -0.20306 0.48148 0.52501 0.05642 0.983 0.013 1237.016 0.01756
-0.05087 -0.20335 0.48216 0.52575 0.05830 0.969 0.013 1237.046 0.01758
-0.05095 -0.20364 0.48284 0.52650 0.06019 0.994 0.013 1237.076 0.01761
-0.05102 -0.20392 0.48353 0.52724 0.06207 0.961 0.013 1237.106 0.01763
-0.05109 -0.20421 0.48421 0.52799 0.06395 0.962 0.013 1237.135 0.01766
-0.05116 -0.20450 0.48489 0.52873 0.06583 0.975 0.014 1237.165 0.01768
-0.05123 -0.20479 0.48558 0.52948 0.06771 0.985 0.014 1237.195 0.01771
-0.05131 -0.20508 0.48626 0.53022 0.06960 0.985 0.014 1237.225 0.01773
-0.05138 -0.20536 0.48694 0.53097 0.07148 0.977 0.014 1237.255 0.01776
-0.05145 -0.20565 0.48763 0.53171 0.07336 0.968 0.014 1237.285 0.01778
-0.05152 -0.20594 0.48831 0.53246 0.07524 0.998 0.014 1237.315 0.01780
-0.05160 -0.20623 0.48899 0.53320 0.07713 0.988 0.014 1237.345 0.01783
-0.05167 -0.20652 0.48968 0.53395 0.07901 0.991 0.014 1237.375 0.01785
-0.05174 -0.20681 0.49036 0.53469 0.08089 0.974 0.014 1237.405 0.01788
-0.05181 -0.20709 0.49104 0.53544 0.08277 0.999 0.014 1237.434 0.01790
-0.05188 -0.20738 0.49173 0.53618 0.08466 0.961 0.014 1237.464 0.01793
-0.05196 -0.20767 0.49241 0.53693 0.08654 0.966 0.013 1237.494 0.01795
-0.05203 -0.20796 0.49309 0.53767 0.08842 0.939 0.012 1237.524 0.01798
-0.05210 -0.20825 0.49378 0.53842 0.09030 0.952 0.012 1237.554 0.01800
-0.05217 -0.20853 0.49446 0.53917 0.09219 0.962 0.012 1237.584 0.01803
-0.05224 -0.20882 0.49514 0.53991 0.09407 0.973 0.012 1237.614 0.01805
-0.05232 -0.20911 0.49583 0.54066 0.09595 0.962 0.012 1237.644 0.01808
-0.05239 -0.20940 0.49651 0.54140 0.09784 0.970 0.012 1237.674 0.01810
-0.05246 -0.20969 0.49719 0.54215 0.09972 0.974 0.012 1237.703 0.01812
-0.05253 -0.20998 0.49788 0.54289 0.10160 0.985 0.012 1237.733 0.01815
-0.05260 -0.21026 0.49856 0.54364 0.10349 0.972 0.012 1237.763 0.01817
-0.05268 -0.21055 0.49925 0.54438 0.10537 1.005 0.012 1237.793 0.01820
-0.05275 -0.21084 0.49993 0.54513 0.10725 0.998 0.012 1237.823 0.01822
-0.05282 -0.21113 0.50061 0.54587 0.10914 0.985 0.012 1237.853 0.01825
-0.05289 -0.21142 0.50130 0.54662 0.11102 1.000 0.012 1237.883 0.01827
-0.05297 -0.21171 0.50198 0.54737 0.11290 1.033 0.012 1237.913 0.01830
-0.05304 -0.21200 0.50266 0.54811 0.11479 1.032 0.012 1237.943 0.01832
-0.05311 -0.21228 0.50335 0.54886 0.11667 0.997 0.012 1237.972 0.01835
-0.05318 -0.21257 0.50403 0.54960 0.11856 1.000 0.012 1238.002 0.01837
-0.05325 -0.21286 0.50472 0.55035 0.12044 0.957 0.012 1238.032 0.01840
-0.05333 -0.21315 0.50540 0.55109 0.12232 0.965 0.012 1238.062 0.01842
-0.05340 -0.21344 0.50608 0.55184 0.12421 1.007 0.012 1238.092 0.01844
-0.05347 -0.21373 0.50677 0.55259 0.12609 1.002 0.012 1238.122 0.01847
-0.05354 -0.21401 0.50745 0.55333 0.12798 1.000 0.012 1238.152 0.01849
-0.05362 -0.21430 0.50814 0.55408 0.12986 0.994 0.012 1238.182 0.01852
-0.05369 -0.21459 0.50882 0.55482 0.13175 0.988 0.012 1238.212 0.01854
-0.05376 -0.21488 0.50950 0.55557 0.13363 0.987 0.012 1238.242 0.01857
-0.05383 -0.21517 0.51019 0.55632 0.13551 1.010 0.012 1238.271 0.01859
-0.05390 -0.21546 0.51087 0.55706 0.13740 0.985 0.012 1238.301 0.01862
-0.05398 -0.21575 0.51156 0.55781 0.13928 0.977 0.012 1238.331 0.01864
-0.05405 -0.21603 0.51224 0.55855 0.14117 0.960 0.012 1238.361 0.01867
-0.05412 -0.21632 0.51293 0.55930 0.14305 0.992 0.012 1238.391 0.01869
-0.05419 -0.21661 0.51361 0.56005 0.14494 0.952 0.012 1238.421 0.01871
-0.05426 -0.21690 0.51429 0.56079 0.14682 0.950 0.012 1238.451 0.01874
-0.05434 -0.21719 0.51498 0.56154 0.14871 0.931 0.012 1238.481 0.01876
-0.05441 -0.21748 0.51566 0.56229 0.15059 0.872 0.011 1238.511 0.01879
-0.05448 -0.21777 0.51635 0.56303 0.15248 0.869 0.011 1238.540 0.01881
-0.05455 -0.21805 0.51703 0.56378 0.15436 0.835 0.011 1238.570 0.01884
-0.05463 -0.21834 0.51772 0.56452 0.15625 0.827 0.011 1238.600 0.01886
-0.05470 -0.21863 0.51840 0.56527 0.15813 0.760 0.011 1238.630 0.01889
-0.05477 -0.21892 0.51908 0.56602 0.16002 0.774 0.011 1238.660 0.01891
-0.05484 -0.21921 0.51977 0.56676 0.16191 0.738 0.011 1238.690 0.01894
-0.05491 -0.21950 0.52045 0.56751 0.16379 0.681 0.010 1238.720 0.01896
-0.05499 -0.21979 0.52114 0.56826 0.16568 0.697 0.010 1238.750 0.01899
-0.05506 -0.22007 0.52182 0.56900 0.16756 0.682 0.011 1238.780 0.01901
-0.05513 -0.22036 0.52251 0.56975 0.16945 0.712 0.011 1238.809 0.01903
-0.05520 -0.22065 0.52319 0.57050 0.17133 0.696 0.011 1238.839 0.01906
-0.05528 -0.22094 0.52388 0.57124 0.17322 0.713 0.011 1238.869 0.01908
-0.05535 -0.22123 0.52456 0.57199 0.17511 0.733 0.011 1238.899 0.01911
-0.05542 -0.22152 0.52525 0.57273 0.17699 0.769 0.012 1238.929 0.01913
-0.05549 -0.22181 0.52593 0.57348 0.17888 0.789 0.012 1238.959 0.01916
-0.05556 -0.22210 0.52662 0.57423 0.18076 0.805 0.012 1238.989 0.01918
-0.05564 -0.22238 0.52730 0.57497 0.18265 0.833 0.012 1239.019 0.01921
-0.05571 -0.22267 0.52798 0.57572 0.18454 0.844 0.012 1239.049 0.01923
-0.05578 -0.22296 0.52867 0.57647 0.18642 0.875 0.012 1239.078 0.01926
-0.05585 -0.22325 0.52935 0.57721 0.18831 0.911 0.013 1239.108 0.01928
-0.05593 -0.22354 0.53004 0.57796 0.19020 0.924 0.013 1239.138 0.01930
-0.05600 -0.22383 0.53072 0.57871 0.19208 0.930 0.013 1239.168 0.01933
-0.05607 -0.22412 0.53141 0.57946 0.19397 0.952 0.013 1239.198 0.01935
-0.05614 -0.22441 0.53209 0.58020 0.19586 1.000 0.013 1239.228 0.01938
-0.05622 -0.22470 0.53278 0.58095 0.19774 1.011 0.013 1239.258 0.01940
-0.05629 -0.22498 0.53346 0.58170 0.19963 1.009 0.013 1239.288 0.01943
-0.05636 -0.22527 0.53415 0.58244 0.20152 1.029 0.013 1239.318 0.01945
-0.05643 -0.22556 0.53483 0.58319 0.20340 1.015 0.013 1239.348 0.01948
-0.05650 -0.22585 0.53552 0.58394 0.20529 0.998 0.013 1239.377 0.01950
-0.05658 -0.22614 0.53620 0.58468 0.20718 0.958 0.013 1239.407 0.01953
-0.05665 -0.22643 0.53689 0.58543 0.20907 0.990 0.013 1239.437 0.01955
-0.05672 -0.22672 0.53757 0.58618 0.21095 1.008 0.013 1239.467 0.01958
-0.05679 -0.22701 0.53826 0.58692 0.21284 0.992 0.013 1239.497 0.01960
-0.05687 -0.22730 0.53894 0.58767 0.21473 1.007 0.013 1239.527 0.01962
-0.05694 -0.22758 0.53963 0.58842 0.21662 1.002 0.013 1239.557 0.01965
-0.05701 -0.22787 0.54031 0.58917 0.21850 1.004 0.013 1239.587 0.01967
-0.05708 -0.22816 0.54100 0.58991 0.22039 0.994 0.013 1239.617 0.01970
-0.05716 -0.22845 0.54169 0.59066 0.22228 0.994 0.013 1239.646 0.01972
-0.05723 -0.22874 0.54237 0.59141 0.22417 0.970 0.013 1239.676 0.01975
-0.05730 -0.22903 0.54306 0.59216 0.22605 1.009 0.013 1239.706 0.01977
-0.05737 -0.22932 0.54374 0.59290 0.22794 0.964 0.013 1239.736 0.01980
-0.05744 -0.22961 0.54443 0.59365 0.22983 0.981 0.013 1239.766 0.01982
-0.05752 -0.22990 0.54511 0.59440 0.23172 0.978 0.013 1239.796 0.01985
-0.05759 -0.23019 0.54580 0.59514 0.23361 0.957 0.013 1239.826 0.01987
-0.05766 -0.23048 0.54648 0.59589 0.23549 0.958 0.013 1239.856 0.01989
-0.05773 -0.23076 0.54717 0.59664 0.23738 0.926 0.013 1239.886 0.01992
-0.05781 -0.23105 0.54785 0.59739 0.23927 0.918 0.013 1239.915 0.01994
-0.05788 -0.23134 0.54854 0.59813 0.24116 0.949 0.013 1239.945 0.01997
-0.05795 -0.23163 0.54922 0.59888 0.24305 0.967 0.013 1239.975 0.01999
-0.05802 -0.23192 0.54991 0.59963 0.24494 0.982 0.012 1240.005 0.02002
-0.05810 -0.23221 0.55060 0.60038 0.24682 0.972 0.012 1240.035 0.02004
-0.05817 -0.23250 0.55128 0.60112 0.24871 0.970 0.012 1240.065 0.02007
-0.05824 -0.23279 0.55197 0.60187 0.25060 0.978 0.012 1240.095 0.02009
-0.05831 -0.23308 0.55265 0.60262 0.25249 0.968 0.012 1240.125 0.02012
-0.05838 -0.23337 0.55334 0.60337 0.25438 1.003 0.012 1240.155 0.02014
-0.05846 -0.23366 0.55402 0.60412 0.25627 1.002 0.012 1240.185 0.02017
-0.05853 -0.23394 0.55471 0.60486 0.25816 1.013 0.012 1240.214 0.02019
-0.05860 -0.23423 0.55540 0.60561 0.26005 1.006 0.012 1240.244 0.02021
-0.05867 -0.23452 0.55608 0.60636 0.26194 0.976 0.012 1240.274 0.02024
-0.05875 -0.23481 0.55677 0.60711 0.26382 0.969 0.012 1240.304 0.02026
-0.05882 -0.23510 0.55745 0.60785 0.26571 0.954 0.012 1240.334 0.02029
-0.05889 -0.23539 0.55814 0.60860 0.26760 0.948 0.012 1240.364 0.02031
-0.05896 -0.23568 0.55882 0.60935 0.26949 1.012 0.012 1240.394 0.02034
-0.05904 -0.23597 0.55951 0.61010 0.27138 0.988 0.012 1240.424 0.02036
-0.05911 -0.23626 0.56020 0.61085 0.27327 0.980 0.012 1240.454 0.02039
-0.05918 -0.23655 0.56088 0.61159 0.27516 0.985 0.012 1240.483 0.02041
-0.05925 -0.23684 0.56157 0.61234 0.27705 0.990 0.012 1240.513 0.02044
-0.05933 -0.23713 0.56225 0.61309 0.27894 0.999 0.012 1240.543 0.02046
-0.05940 -0.23742 0.56294 0.61384 0.28083 1.028 0.012 1240.573 0.02049
-0.05947 -0.23771 0.56363 0.61459 0.28272 0.986 0.012 1240.603 0.02051
-0.05954 -0.23799 0.56431 0.61533 0.28461 0.998 0.012 1240.633 0.02053
-0.05961 -0.23828 0.56500 0.61608 0.28650 1.008 0.012 1240.663 0.02056
-0.05969 -0.23857 0.56569 0.61683 0.28839 0.994 0.012 1240.693 0.02058
-0.05976 -0.23886 0.56637 0.61758 0.29028 0.987 0.012 1240.723 0.02061
-0.05983 -0.23915 0.56706 0.61833 0.29217 0.990 0.012 1240.752 0.02063
-0.05990 -0.23944 0.56774 0.61907 0.29406 1.024 0.012 1240.782 0.02066
-0.05998 -0.23973 0.56843 0.61982 0.29595 1.007 0.012 1240.812 0.02068
-0.06005 -0.24002 0.56912 0.62057 0.29784 0.998 0.012 1240.842 0.02071
-0.06012 -0.24031 0.56980 0.62132 0.29973 1.005 0.012 1240.872 0.02073
-0.06019 -0.24060 0.57049 0.62207 0.30162 1.049 0.013 1240.902 0.02076
-0.06027 -0.24089 0.57117 0.62282 0.30351 1.007 0.012 1240.932 0.02078
-0.06034 -0.24118 0.57186 0.62356 0.30540 1.013 0.012 1240.962 0.02080
-0.06041 -0.24147 0.57255 0.62431 0.30729 1.025 0.012 1240.992 0.02083
-0.06048 -0.24176 0.57323 0.62506 0.30918 1.020 0.012 1241.021 0.02085
-0.06056 -0.24205 0.57392 0.62581 0.31108 1.003 0.012 1241.051 0.02088
-0.06063 -0.24234 0.57461 0.62656 0.31297 1.017 0.012 1241.081 0.02090
-0.06070 -0.24263 0.57529 0.62731 0.31486 1.050 0.013 1241.111 0.02093
-0.06077 -0.24292 0.57598 0.62806 0.31675 1.020 0.012 1241.141 0.02095
-0.06085 -0.24320 0.57667 0.62880 0.31864 1.010 0.012 1241.171 0.02098
-0.06092 -0.24349 0.57735 0.62955 0.32053 1.007 0.012 1241.201 0.02100
-0.06099 -0.24378 0.57804 0.63030 0.32242 1.011 0.012 1241.231 0.02103
-0.06106 -0.24407 0.57873 0.63105 0.32431 1.001 0.012 1241.261 0.02105
-0.06114 -0.24436 0.57941 0.63180 0.32620 1.033 0.012 1241.291 0.02108
-0.06121 -0.24465 0.58010 0.63255 0.32810 1.007 0.012 1241.320 0.02110
-0.06128 -0.24494 0.58079 0.63330 0.32999 1.006 0.012 1241.350 0.02112
-0.06135 -0.24523 0.58147 0.63405 0.33188 0.993 0.012 1241.380 0.02115
-0.06143 -0.24552 0.58216 0.63479 0.33377 0.958 0.012 1241.410 0.02117
-0.06150 -0.24581 0.58285 0.63554 0.33566 0.993 0.012 1241.440 0.02120
-0.06157 -0.24610 0.58353 0.63629 0.33755 1.018 0.012 1241.470 0.02122
-0.06164 -0.24639 0.58422 0.63704 0.33945 1.029 0.012 1241.500 0.02125
-0.06172 -0.24668 0.58491 0.63779 0.34134 1.004 0.013 1241.530 0.02127
-0.06179 -0.24697 0.58559 0.63854 0.34323 0.980 0.013 1241.560 0.02130
-0.06186 -0.24726 0.58628 0.63929 0.34512 0.996 0.013 1241.589 0.02132
-0.06193 -0.24755 0.58697 0.64004 0.34701 1.030 0.013 1241.619 0.02135
-0.06201 -0.24784 0.58765 0.64079 0.34891 0.999 0.013 1241.649 0.02137
-0.06208 -0.24813 0.58834 0.64153 0.35080 0.991 0.013 1241.679 0.02139
-0.06215 -0.24842 0.58903 0.64228 0.35269 0.976 0.013 1241.709 0.02142
-0.06222 -0.24871 0.58971 0.64303 0.35458 1.006 0.014 1241.739 0.02144
-0.06230 -0.24900 0.59040 0.64378 0.35648 0.982 0.014 1241.769 0.02147
-0.06237 -0.24929 0.59109 0.64453 0.35837 1.029 0.015 1241.799 0.02149
-0.06244 -0.24958 0.59178 0.64528 0.36026 1.010 0.014 1241.829 0.02152
-0.06251 -0.24987 0.59246 0.64603 0.36215 1.001 0.014 1241.858 0.02154
-0.06259 -0.25016 0.59315 0.64678 0.36405 1.009 0.014 1241.888 0.02157
-0.06266 -0.25045 0.59384 0.64753 0.36594 1.001 0.014 1241.918 0.02159
-0.06273 -0.25074 0.59452 0.64828 0.36783 1.058 0.015 1241.948 0.02162
-0.06280 -0.25103 0.59521 0.64903 0.36973 1.041 0.015 1241.978 0.02164
-0.06288 -0.25132 0.59590 0.64978 0.37162 1.031 0.015 1242.008 0.02167
-0.06295 -0.25161 0.59659 0.65053 0.37351 1.013 0.014 1242.038 0.02169
-0.06302 -0.25190 0.59727 0.65127 0.37541 0.999 0.014 1242.068 0.02171
-0.06309 -0.25219 0.59796 0.65202 0.37730 0.985 0.014 1242.098 0.02174
-0.06317 -0.25248 0.59865 0.65277 0.37919 0.977 0.013 1242.128 0.02176
-0.06324 -0.25277 0.59934 0.65352 0.38109 1.001 0.013 1242.157 0.02179
-0.06331 -0.25306 0.60002 0.65427 0.38298 1.007 0.013 1242.187 0.02181
-0.06338 -0.25335 0.60071 0.65502 0.38487 1.021 0.013 1242.217 0.02184
-0.06346 -0.25363 0.60140 0.65577 0.38677 1.015 0.013 1242.247 0.02186
-0.06353 -0.25392 0.60208 0.65652 0.38866 1.001 0.013 1242.277 0.02189
-0.06360 -0.25421 0.60277 0.65727 0.39055 0.984 0.013 1242.307 0.02191
-0.06367 -0.25450 0.60346 0.65802 0.39245 0.989 0.013 1242.337 0.02194
-0.06375 -0.25479 0.60415 0.65877 0.39434 0.984 0.013 1242.367 0.02196
-0.06382 -0.25508 0.60483 0.65952 0.39623 0.979 0.013 1242.397 0.02199
-0.06389 -0.25537 0.60552 0.66027 0.39813 0.984 0.013 1242.426 0.02201
-0.06396 -0.25566 0.60621 0.66102 0.40002 0.942 0.013 1242.456 0.02203
-0.06404 -0.25595 0.60690 0.66177 0.40192 0.962 0.013 1242.486 0.02206
-0.06411 -0.25624 0.60759 0.66252 0.40381 0.927 0.013 1242.516 0.02208
-0.06418 -0.25653 0.60827 0.66327 0.40570 0.917 0.012 1242.546 0.02211
-0.06425 -0.25682 0.60896 0.66402 0.40760 0.875 0.011 1242.576 0.02213
-0.06433 -0.25711 0.60965 0.66477 0.40949 0.886 0.012 1242.606 0.02216
-0.06440 -0.25740 0.61034 0.66552 0.41139 0.919 0.012 1242.636 0.02218
-0.06447 -0.25769 0.61102 0.66627 0.41328 0.887 0.012 1242.666 0.02221
-0.06454 -0.25798 0.61171 0.66702 0.41518 0.858 0.011 1242.695 0.02223
-0.06462 -0.25827 0.61240 0.66777 0.41707 0.853 0.011 1242.725 0.02226
-0.06469 -0.25856 0.61309 0.66852 0.41897 0.832 0.011 1242.755 0.02228
-0.06476 -0.25886 0.61377 0.66927 0.42086 0.822 0.011 1242.785 0.02230
-0.06483 -0.25915 0.61446 0.67002 0.42276 0.820 0.011 1242.815 0.02233
-0.06491 -0.25944 0.61515 0.67077 0.42465 0.858 0.011 1242.845 0.02235
-0.06498 -0.25973 0.61584 0.67152 0.42655 0.867 0.011 1242.875 0.02238
-0.06505 -0.26002 0.61653 0.67227 0.42844 0.881 0.011 1242.905 0.02240
-0.06512 -0.26031 0.61721 0.67302 0.43034 0.929 0.012 1242.935 0.02243
-0.06520 -0.26060 0.61790 0.67377 0.43223 0.902 0.012 1242.964 0.02245
-0.06527 -0.26089 0.61859 0.67452 0.43413 0.934 0.012 1242.994 0.02248
-0.06534 -0.26118 0.61928 0.67527 0.43602 0.950 0.012 1243.024 0.02250
-0.06541 -0.26147 0.61997 0.67602 0.43792 0.971 0.012 1243.054 0.02253
-0.06549 -0.26176 0.62065 0.67677 0.43981 0.984 0.012 1243.084 0.02255
-0.06556 -0.26205 0.62134 0.67752 0.44171 0.976 0.012 1243.114 0.02258
-0.06563 -0.26234 0.62203 0.67827 0.44360 0.967 0.012 1243.144 0.02260
-0.06571 -0.26263 0.62272 0.67902 0.44550 0.959 0.012 1243.174 0.02262
-0.06578 -0.26292 0.62341 0.67977 0.44740 0.967 0.012 1243.204 0.02265
-0.06585 -0.26321 0.62410 0.68052 0.44929 0.993 0.012 1243.234 0.02267
-0.06592 -0.26350 0.62478 0.68127 0.45119 1.014 0.012 1243.263 0.02270
-0.06600 -0.26379 0.62547 0.68202 0.45308 0.971 0.012 1243.293 0.02272
-0.06607 -0.26408 0.62616 0.68277 0.45498 0.982 0.012 1243.323 0.02275
-0.06614 -0.26437 0.62685 0.68352 0.45688 1.002 0.012 1243.353 0.02277
-0.06621 -0.26466 0.62754 0.68427 0.45877 1.018 0.012 1243.383 0.02280
-0.06629 -0.26495 0.62823 0.68502 0.46067 1.020 0.012 1243.413 0.02282
-0.06636 -0.26524 0.62891 0.68578 0.46256 1.001 0.012 1243.443 0.02285
-0.06643 -0.26553 0.62960 0.68653 0.46446 1.033 0.012 1243.473 0.02287
-0.06650 -0.26582 0.63029 0.68728 0.46636 0.998 0.012 1243.503 0.02289
-0.06658 -0.26611 0.63098 0.68803 0.46825 1.005 0.012 1243.532 0.02292
-0.06665 -0.26640 0.63167 0.68878 0.47015 1.004 0.012 1243.562 0.02294
-0.06672 -0.26669 0.63236 0.68953 0.47205 1.029 0.012 1243.592 0.02297
-0.06679 -0.26698 0.63304 0.69028 0.47394 1.027 0.012 1243.622 0.02299
-0.06687 -0.26727 0.63373 0.69103 0.47584 1.013 0.012 1243.652 0.02302
-0.06694 -0.26756 0.63442 0.69178 0.47774 1.001 0.012 1243.682 0.02304
-0.06701 -0.26785 0.63511 0.69253 0.47963 1.006 0.012 1243.712 0.02307
-0.06709 -0.26814 0.63580 0.69328 0.48153 1.000 0.012 1243.742 0.02309
-0.06716 -0.26843 0.63649 0.69403 0.48343 0.990 0.012 1243.772 0.02312
-0.06723 -0.26872 0.63718 0.69478 0.48532 1.016 0.012 1243.801 0.02314
-0.06730 -0.26901 0.63786 0.69554 0.48722 1.015 0.012 1243.831 0.02317
-0.06738 -0.26931 0.63855 0.69629 0.48912 1.007 0.012 1243.861 0.02319
-0.06745 -0.26960 0.63924 0.69704 0.49102 0.996 0.012 1243.891 0.02321
-0.06752 -0.26989 0.63993 0.69779 0.49291 1.036 0.012 1243.921 0.02324
-0.06759 -0.27018 0.64062 0.69854 0.49481 1.034 0.012 1243.951 0.02326
-0.06767 -0.27047 0.64131 0.69929 0.49671 1.010 0.012 1243.981 0.02329
-0.06774 -0.27076 0.64200 0.70004 0.49861 0.984 0.012 1244.011 0.02331
-0.06781 -0.27105 0.64269 0.70079 0.50050 1.007 0.012 1244.041 0.02334
-0.06788 -0.27134 0.64338 0.70154 0.50240 0.998 0.012 1244.071 0.02336
-0.06796 -0.27163 0.64406 0.70230 0.50430 0.984 0.012 1244.100 0.02339
-0.06803 -0.27192 0.64475 0.70305 0.50620 1.009 0.012 1244.130 0.02341
-0.06810 -0.27221 0.64544 0.70380 0.50809 0.981 0.012 1244.160 0.02344
-0.06818 -0.27250 0.64613 0.70455 0.50999 0.988 0.012 1244.190 0.02346
-0.06825 -0.27279 0.64682 0.70530 0.51189 1.000 0.012 1244.220 0.02348
-0.06832 -0.27308 0.64751 0.70605 0.51379 1.008 0.012 1244.250 0.02351
-0.06839 -0.27337 0.64820 0.70680 0.51569 1.020 0.012 1244.280 0.02353
-0.06847 -0.27366 0.64889 0.70755 0.51759 1.000 0.012 1244.310 0.02356
-0.06854 -0.27395 0.64958 0.70831 0.51948 0.985 0.012 1244.340 0.02358
-0.06861 -0.27424 0.65027 0.70906 0.52138 1.009 0.012 1244.369 0.02361
-0.06868 -0.27454 0.65095 0.70981 0.52328 1.017 0.012 1244.399 0.02363
-0.06876 -0.27483 0.65164 0.71056 0.52518 1.044 0.013 1244.429 0.02366
-0.06883 -0.27512 0.65233 0.71131 0.52708 1.027 0.012 1244.459 0.02368
