x y z dist_scaled dist_frac flux_norm wavelength redshift
-0.39071 -0.01095 0.31593 0.50258 0.00000 0.816 1236.115 0.01682
-0.39129 -0.01097 0.31640 0.50333 0.00188 1.013 1236.145 0.01684
-0.39187 -0.01098 0.31686 0.50407 0.00375 0.946 1236.175 0.01687
-0.39245 -0.01100 0.31733 0.50481 0.00563 0.978 1236.205 0.01689
-0.39303 -0.01102 0.31780 0.50556 0.00751 0.747 1236.235 0.01692
-0.39361 -0.01103 0.31827 0.50630 0.00938 0.812 1236.265 0.01694
-0.39418 -0.01105 0.31873 0.50705 0.01126 0.744 1236.295 0.01697
-0.39476 -0.01106 0.31920 0.50779 0.01313 1.237 1236.325 0.01699
-0.39534 -0.01108 0.31967 0.50853 0.01501 1.070 1236.355 0.01701
-0.39592 -0.01110 0.32014 0.50928 0.01689 1.102 1236.384 0.01704
-0.39650 -0.01111 0.32061 0.51002 0.01876 0.973 1236.414 0.01706
-0.39708 -0.01113 0.32107 0.51077 0.02064 0.677 1236.444 0.01709
-0.39765 -0.01115 0.32154 0.51151 0.02252 0.773 1236.474 0.01711
-0.39823 -0.01116 0.32201 0.51225 0.02440 0.937 1236.504 0.01714
-0.39881 -0.01118 0.32248 0.51300 0.02627 1.135 1236.534 0.01716
-0.39939 -0.01119 0.32294 0.51374 0.02815 1.034 1236.564 0.01719
-0.39997 -0.01121 0.32341 0.51449 0.03003 1.165 1236.594 0.01721
-0.40055 -0.01123 0.32388 0.51523 0.03190 0.837 1236.623 0.01724
-0.40113 -0.01124 0.32435 0.51597 0.03378 0.837 1236.653 0.01726
-0.40170 -0.01126 0.32482 0.51672 0.03566 1.129 1236.683 0.01729
-0.40228 -0.01128 0.32528 0.51746 0.03754 0.964 1236.713 0.01731
-0.40286 -0.01129 0.32575 0.51821 0.03941 0.932 1236.743 0.01733
-0.40344 -0.01131 0.32622 0.51895 0.04129 0.607 1236.773 0.01736
-0.40402 -0.01132 0.32669 0.51970 0.04317 1.029 1236.803 0.01738
-0.40460 -0.01134 0.32715 0.52044 0.04505 1.234 1236.833 0.01741
-0.40518 -0.01136 0.32762 0.52118 0.04692 1.005 1236.862 0.01743
-0.40575 -0.01137 0.32809 0.52193 0.04880 0.892 1236.892 0.01746
-0.40633 -0.01139 0.32856 0.52267 0.05068 0.803 1236.922 0.01748
-0.40691 -0.01141 0.32903 0.52342 0.05256 0.981 1236.952 0.01751
-0.40749 -0.01142 0.32949 0.52416 0.05444 1.178 1236.982 0.01753
-0.40807 -0.01144 0.32996 0.52491 0.05631 0.886 1237.012 0.01756
-0.40865 -0.01145 0.33043 0.52565 0.05819 1.163 1237.042 0.01758
-0.40923 -0.01147 0.33090 0.52640 0.06007 1.086 1237.072 0.01760
-0.40981 -0.01149 0.33137 0.52714 0.06195 1.288 1237.101 0.01763
-0.41038 -0.01150 0.33183 0.52788 0.06383 0.968 1237.131 0.01765
-0.41096 -0.01152 0.33230 0.52863 0.06571 1.271 1237.161 0.01768
-0.41154 -0.01154 0.33277 0.52937 0.06758 0.962 1237.191 0.01770
-0.41212 -0.01155 0.33324 0.53012 0.06946 0.966 1237.221 0.01773
-0.41270 -0.01157 0.33371 0.53086 0.07134 1.186 1237.251 0.01775
-0.41328 -0.01158 0.33418 0.53161 0.07322 1.190 1237.281 0.01778
-0.41386 -0.01160 0.33464 0.53235 0.07510 0.807 1237.311 0.01780
-0.41444 -0.01162 0.33511 0.53310 0.07698 1.149 1237.341 0.01783
-0.41502 -0.01163 0.33558 0.53384 0.07886 1.348 1237.370 0.01785
-0.41560 -0.01165 0.33605 0.53459 0.08074 1.250 1237.400 0.01788
-0.41617 -0.01167 0.33652 0.53533 0.08261 1.043 1237.430 0.01790
-0.41675 -0.01168 0.33698 0.53608 0.08449 1.047 1237.460 0.01792
-0.41733 -0.01170 0.33745 0.53682 0.08637 1.192 1237.490 0.01795
-0.41791 -0.01171 0.33792 0.53757 0.08825 0.897 1237.520 0.01797
-0.41849 -0.01173 0.33839 0.53831 0.09013 0.694 1237.550 0.01800
-0.41907 -0.01175 0.33886 0.53906 0.09201 1.066 1237.580 0.01802
-0.41965 -0.01176 0.33933 0.53980 0.09389 0.930 1237.609 0.01805
-0.42023 -0.01178 0.33979 0.54055 0.09577 0.824 1237.639 0.01807
-0.42081 -0.01179 0.34026 0.54129 0.09765 1.011 1237.669 0.01810
-0.42139 -0.01181 0.34073 0.54204 0.09953 1.044 1237.699 0.01812
-0.42197 -0.01183 0.34120 0.54278 0.10141 0.911 1237.729 0.01815
-0.42255 -0.01184 0.34167 0.54353 0.10329 1.354 1237.759 0.01817
-0.42313 -0.01186 0.34214 0.54427 0.10517 1.036 1237.789 0.01819
-0.42370 -0.01188 0.34261 0.54502 0.10705 1.292 1237.819 0.01822
-0.42428 -0.01189 0.34307 0.54576 0.10893 1.037 1237.848 0.01824
-0.42486 -0.01191 0.34354 0.54651 0.11081 1.069 1237.878 0.01827
-0.42544 -0.01192 0.34401 0.54725 0.11269 1.194 1237.908 0.01829
-0.42602 -0.01194 0.34448 0.54800 0.11457 0.812 1237.938 0.01832
-0.42660 -0.01196 0.34495 0.54874 0.11645 1.099 1237.968 0.01834
-0.42718 -0.01197 0.34542 0.54949 0.11833 1.066 1237.998 0.01837
-0.42776 -0.01199 0.34589 0.55024 0.12021 0.999 1238.028 0.01839
-0.42834 -0.01201 0.34635 0.55098 0.12209 1.157 1238.058 0.01842
-0.42892 -0.01202 0.34682 0.55173 0.12397 1.095 1238.087 0.01844
-0.42950 -0.01204 0.34729 0.55247 0.12585 1.220 1238.117 0.01847
-0.43008 -0.01205 0.34776 0.55322 0.12773 1.154 1238.147 0.01849
-0.43066 -0.01207 0.34823 0.55396 0.12961 1.187 1238.177 0.01851
-0.43124 -0.01209 0.34870 0.55471 0.13149 1.029 1238.207 0.01854
-0.43182 -0.01210 0.34917 0.55545 0.13338 1.248 1238.237 0.01856
-0.43240 -0.01212 0.34963 0.55620 0.13526 1.185 1238.267 0.01859
-0.43298 -0.01214 0.35010 0.55695 0.13714 0.588 1238.297 0.01861
-0.43356 -0.01215 0.35057 0.55769 0.13902 0.711 1238.327 0.01864
-0.43414 -0.01217 0.35104 0.55844 0.14090 0.682 1238.356 0.01866
-0.43472 -0.01218 0.35151 0.55918 0.14278 0.900 1238.386 0.01869
-0.43530 -0.01220 0.35198 0.55993 0.14466 0.805 1238.416 0.01871
-0.43588 -0.01222 0.35245 0.56067 0.14654 0.869 1238.446 0.01874
-0.43646 -0.01223 0.35292 0.56142 0.14843 0.868 1238.476 0.01876
-0.43704 -0.01225 0.35338 0.56217 0.15031 0.838 1238.506 0.01878
-0.43762 -0.01227 0.35385 0.56291 0.15219 0.900 1238.536 0.01881
-0.43820 -0.01228 0.35432 0.56366 0.15407 0.990 1238.566 0.01883
-0.43878 -0.01230 0.35479 0.56440 0.15595 0.774 1238.595 0.01886
-0.43936 -0.01231 0.35526 0.56515 0.15783 0.836 1238.625 0.01888
-0.43994 -0.01233 0.35573 0.56590 0.15972 0.803 1238.655 0.01891
-0.44052 -0.01235 0.35620 0.56664 0.16160 0.678 1238.685 0.01893
-0.44110 -0.01236 0.35667 0.56739 0.16348 0.710 1238.715 0.01896
-0.44168 -0.01238 0.35714 0.56813 0.16536 0.650 1238.745 0.01898
-0.44226 -0.01240 0.35761 0.56888 0.16724 0.648 1238.775 0.01901
-0.44284 -0.01241 0.35807 0.56963 0.16913 0.929 1238.805 0.01903
-0.44342 -0.01243 0.35854 0.57037 0.17101 0.585 1238.834 0.01905
-0.44400 -0.01244 0.35901 0.57112 0.17289 0.863 1238.864 0.01908
-0.44458 -0.01246 0.35948 0.57186 0.17477 0.801 1238.894 0.01910
-0.44516 -0.01248 0.35995 0.57261 0.17665 0.986 1238.924 0.01913
-0.44574 -0.01249 0.36042 0.57336 0.17854 0.707 1238.954 0.01915
-0.44632 -0.01251 0.36089 0.57410 0.18042 0.613 1238.984 0.01918
-0.44690 -0.01253 0.36136 0.57485 0.18230 0.583 1239.014 0.01920
-0.44748 -0.01254 0.36183 0.57560 0.18419 0.892 1239.044 0.01923
-0.44806 -0.01256 0.36230 0.57634 0.18607 0.427 1239.073 0.01925
-0.44864 -0.01258 0.36277 0.57709 0.18795 0.518 1239.103 0.01928
-0.44922 -0.01259 0.36323 0.57784 0.18983 0.582 1239.133 0.01930
-0.44980 -0.01261 0.36370 0.57858 0.19172 0.642 1239.163 0.01933
-0.45038 -0.01262 0.36417 0.57933 0.19360 0.333 1239.193 0.01935
-0.45096 -0.01264 0.36464 0.58007 0.19548 0.579 1239.223 0.01937
-0.45154 -0.01266 0.36511 0.58082 0.19737 0.640 1239.253 0.01940
-0.45212 -0.01267 0.36558 0.58157 0.19925 0.547 1239.283 0.01942
-0.45270 -0.01269 0.36605 0.58231 0.20113 0.946 1239.313 0.01945
-0.45328 -0.01271 0.36652 0.58306 0.20302 0.854 1239.342 0.01947
-0.45386 -0.01272 0.36699 0.58381 0.20490 0.946 1239.372 0.01950
-0.45444 -0.01274 0.36746 0.58455 0.20678 0.731 1239.402 0.01952
-0.45502 -0.01275 0.36793 0.58530 0.20867 0.885 1239.432 0.01955
-0.45560 -0.01277 0.36840 0.58605 0.21055 0.789 1239.462 0.01957
-0.45618 -0.01279 0.36887 0.58679 0.21243 1.067 1239.492 0.01960
-0.45676 -0.01280 0.36934 0.58754 0.21432 1.003 1239.522 0.01962
-0.45734 -0.01282 0.36981 0.58829 0.21620 1.124 1239.552 0.01964
-0.45792 -0.01284 0.37027 0.58904 0.21809 1.067 1239.581 0.01967
-0.45850 -0.01285 0.37074 0.58978 0.21997 0.914 1239.611 0.01969
-0.45909 -0.01287 0.37121 0.59053 0.22185 1.217 1239.641 0.01972
-0.45967 -0.01288 0.37168 0.59128 0.22374 0.849 1239.671 0.01974
-0.46025 -0.01290 0.37215 0.59202 0.22562 0.726 1239.701 0.01977
-0.46083 -0.01292 0.37262 0.59277 0.22751 0.816 1239.731 0.01979
-0.46141 -0.01293 0.37309 0.59352 0.22939 0.999 1239.761 0.01982
-0.46199 -0.01295 0.37356 0.59426 0.23128 0.815 1239.791 0.01984
-0.46257 -0.01297 0.37403 0.59501 0.23316 1.030 1239.820 0.01987
-0.46315 -0.01298 0.37450 0.59576 0.23504 0.816 1239.850 0.01989
-0.46373 -0.01300 0.37497 0.59650 0.23693 1.092 1239.880 0.01992
-0.46431 -0.01301 0.37544 0.59725 0.23881 1.089 1239.910 0.01994
-0.46489 -0.01303 0.37591 0.59800 0.24070 1.392 1239.940 0.01996
-0.46547 -0.01305 0.37638 0.59875 0.24258 1.208 1239.970 0.01999
-0.46605 -0.01306 0.37685 0.59949 0.24447 0.864 1240.000 0.02001
-0.46664 -0.01308 0.37732 0.60024 0.24635 1.093 1240.030 0.02004
-0.46722 -0.01310 0.37779 0.60099 0.24824 0.929 1240.059 0.02006
-0.46780 -0.01311 0.37826 0.60174 0.25012 0.866 1240.089 0.02009
-0.46838 -0.01313 0.37873 0.60248 0.25201 1.112 1240.119 0.02011
-0.46896 -0.01314 0.37920 0.60323 0.25389 0.954 1240.149 0.02014
-0.46954 -0.01316 0.37967 0.60398 0.25578 1.312 1240.179 0.02016
-0.47012 -0.01318 0.38014 0.60472 0.25766 0.714 1240.209 0.02019
-0.47070 -0.01319 0.38061 0.60547 0.25955 1.079 1240.239 0.02021
-0.47128 -0.01321 0.38108 0.60622 0.26144 0.651 1240.269 0.02023
-0.47186 -0.01323 0.38155 0.60697 0.26332 1.023 1240.299 0.02026
-0.47245 -0.01324 0.38202 0.60771 0.26521 1.104 1240.328 0.02028
-0.47303 -0.01326 0.38249 0.60846 0.26709 0.956 1240.358 0.02031
-0.47361 -0.01327 0.38296 0.60921 0.26898 1.062 1240.388 0.02033
-0.47419 -0.01329 0.38343 0.60996 0.27086 1.139 1240.418 0.02036
-0.47477 -0.01331 0.38390 0.61070 0.27275 0.839 1240.448 0.02038
-0.47535 -0.01332 0.38437 0.61145 0.27464 0.928 1240.478 0.02041
-0.47593 -0.01334 0.38484 0.61220 0.27652 1.031 1240.508 0.02043
-0.47651 -0.01336 0.38531 0.61295 0.27841 0.987 1240.538 0.02046
-0.47709 -0.01337 0.38578 0.61370 0.28029 0.863 1240.567 0.02048
-0.47768 -0.01339 0.38625 0.61444 0.28218 0.984 1240.597 0.02050
-0.47826 -0.01341 0.38672 0.61519 0.28407 1.107 1240.627 0.02053
-0.47884 -0.01342 0.38719 0.61594 0.28595 1.075 1240.657 0.02055
-0.47942 -0.01344 0.38766 0.61669 0.28784 0.834 1240.687 0.02058
-0.48000 -0.01345 0.38813 0.61743 0.28973 1.045 1240.717 0.02060
-0.48058 -0.01347 0.38860 0.61818 0.29161 1.194 1240.747 0.02063
-0.48116 -0.01349 0.38907 0.61893 0.29350 0.652 1240.777 0.02065
-0.48175 -0.01350 0.38954 0.61968 0.29539 0.712 1240.806 0.02068
-0.48233 -0.01352 0.39001 0.62043 0.29727 0.802 1240.836 0.02070
-0.48291 -0.01354 0.39048 0.62117 0.29916 0.921 1240.866 0.02073
-0.48349 -0.01355 0.39095 0.62192 0.30105 0.952 1240.896 0.02075
-0.48407 -0.01357 0.39142 0.62267 0.30293 0.860 1240.926 0.02078
-0.48465 -0.01358 0.39189 0.62342 0.30482 0.862 1240.956 0.02080
-0.48524 -0.01360 0.39236 0.62417 0.30671 0.829 1240.986 0.02082
-0.48582 -0.01362 0.39283 0.62491 0.30859 1.067 1241.016 0.02085
-0.48640 -0.01363 0.39330 0.62566 0.31048 1.068 1241.045 0.02087
-0.48698 -0.01365 0.39377 0.62641 0.31237 1.009 1241.075 0.02090
-0.48756 -0.01367 0.39424 0.62716 0.31426 0.978 1241.105 0.02092
-0.48814 -0.01368 0.39471 0.62791 0.31614 1.066 1241.135 0.02095
-0.48872 -0.01370 0.39518 0.62866 0.31803 1.213 1241.165 0.02097
-0.48931 -0.01371 0.39565 0.62940 0.31992 0.947 1241.195 0.02100
-0.48989 -0.01373 0.39612 0.63015 0.32181 0.706 1241.225 0.02102
-0.49047 -0.01375 0.39659 0.63090 0.32369 1.064 1241.255 0.02105
-0.49105 -0.01376 0.39706 0.63165 0.32558 1.092 1241.285 0.02107
-0.49163 -0.01378 0.39753 0.63240 0.32747 1.092 1241.314 0.02109
-0.49222 -0.01380 0.39800 0.63315 0.32936 1.152 1241.344 0.02112
-0.49280 -0.01381 0.39847 0.63389 0.33125 0.675 1241.374 0.02114
-0.49338 -0.01383 0.39894 0.63464 0.33313 1.032 1241.404 0.02117
-0.49396 -0.01385 0.39941 0.63539 0.33502 0.969 1241.434 0.02119
-0.49454 -0.01386 0.39988 0.63614 0.33691 0.999 1241.464 0.02122
-0.49512 -0.01388 0.40036 0.63689 0.33880 1.060 1241.494 0.02124
-0.49571 -0.01389 0.40083 0.63764 0.34069 1.148 1241.524 0.02127
-0.49629 -0.01391 0.40130 0.63838 0.34258 1.089 1241.553 0.02129
-0.49687 -0.01393 0.40177 0.63913 0.34446 1.208 1241.583 0.02132
-0.49745 -0.01394 0.40224 0.63988 0.34635 0.913 1241.613 0.02134
-0.49803 -0.01396 0.40271 0.64063 0.34824 0.791 1241.643 0.02137
-0.49862 -0.01398 0.40318 0.64138 0.35013 1.148 1241.673 0.02139
-0.49920 -0.01399 0.40365 0.64213 0.35202 0.940 1241.703 0.02141
-0.49978 -0.01401 0.40412 0.64288 0.35391 1.237 1241.733 0.02144
-0.50036 -0.01402 0.40459 0.64363 0.35580 0.853 1241.763 0.02146
-0.50095 -0.01404 0.40506 0.64437 0.35769 1.030 1241.792 0.02149
-0.50153 -0.01406 0.40553 0.64512 0.35957 1.027 1241.822 0.02151
-0.50211 -0.01407 0.40600 0.64587 0.36146 0.881 1241.852 0.02154
-0.50269 -0.01409 0.40647 0.64662 0.36335 0.880 1241.882 0.02156
-0.50327 -0.01411 0.40694 0.64737 0.36524 1.086 1241.912 0.02159
-0.50386 -0.01412 0.40742 0.64812 0.36713 0.909 1241.942 0.02161
-0.50444 -0.01414 0.40789 0.64887 0.36902 1.016 1241.972 0.02164
-0.50502 -0.01416 0.40836 0.64962 0.37091 0.811 1242.002 0.02166
-0.50560 -0.01417 0.40883 0.65037 0.37280 0.965 1242.031 0.02168
-0.50619 -0.01419 0.40930 0.65111 0.37469 1.187 1242.061 0.02171
-0.50677 -0.01420 0.40977 0.65186 0.37658 0.981 1242.091 0.02173
-0.50735 -0.01422 0.41024 0.65261 0.37847 0.997 1242.121 0.02176
-0.50793 -0.01424 0.41071 0.65336 0.38036 1.087 1242.151 0.02178
-0.50851 -0.01425 0.41118 0.65411 0.38225 0.664 1242.181 0.02181
-0.50910 -0.01427 0.41165 0.65486 0.38414 0.742 1242.211 0.02183
-0.50968 -0.01429 0.41212 0.65561 0.38603 1.095 1242.241 0.02186
-0.51026 -0.01430 0.41260 0.65636 0.38792 0.992 1242.271 0.02188
-0.51084 -0.01432 0.41307 0.65711 0.38981 1.234 1242.300 0.02191
-0.51143 -0.01433 0.41354 0.65786 0.39170 1.098 1242.330 0.02193
-0.51201 -0.01435 0.41401 0.65861 0.39359 1.027 1242.360 0.02196
-0.51259 -0.01437 0.41448 0.65936 0.39548 1.032 1242.390 0.02198
-0.51317 -0.01438 0.41495 0.66011 0.39737 0.888 1242.420 0.02200
-0.51376 -0.01440 0.41542 0.66085 0.39926 0.847 1242.450 0.02203
-0.51434 -0.01442 0.41589 0.66160 0.40115 1.105 1242.480 0.02205
-0.51492 -0.01443 0.41636 0.66235 0.40304 1.106 1242.510 0.02208
-0.51551 -0.01445 0.41683 0.66310 0.40493 0.989 1242.539 0.02210
-0.51609 -0.01447 0.41731 0.66385 0.40682 1.222 1242.569 0.02213
-0.51667 -0.01448 0.41778 0.66460 0.40871 0.723 1242.599 0.02215
-0.51725 -0.01450 0.41825 0.66535 0.41060 0.577 1242.629 0.02218
-0.51784 -0.01451 0.41872 0.66610 0.41249 0.899 1242.659 0.02220
-0.51842 -0.01453 0.41919 0.66685 0.41438 0.636 1242.689 0.02223
-0.51900 -0.01455 0.41966 0.66760 0.41628 0.695 1242.719 0.02225
-0.51958 -0.01456 0.42013 0.66835 0.41817 0.665 1242.749 0.02227
-0.52017 -0.01458 0.42060 0.66910 0.42006 0.842 1242.778 0.02230
-0.52075 -0.01460 0.42108 0.66985 0.42195 0.929 1242.808 0.02232
-0.52133 -0.01461 0.42155 0.67060 0.42384 1.133 1242.838 0.02235
-0.52192 -0.01463 0.42202 0.67135 0.42573 0.929 1242.868 0.02237
-0.52250 -0.01465 0.42249 0.67210 0.42762 0.781 1242.898 0.02240
-0.52308 -0.01466 0.42296 0.67285 0.42951 0.692 1242.928 0.02242
-0.52366 -0.01468 0.42343 0.67360 0.43141 1.395 1242.958 0.02245
-0.52425 -0.01469 0.42390 0.67435 0.43330 0.867 1242.988 0.02247
-0.52483 -0.01471 0.42438 0.67510 0.43519 0.927 1243.017 0.02250
-0.52541 -0.01473 0.42485 0.67585 0.43708 1.012 1243.047 0.02252
-0.52600 -0.01474 0.42532 0.67660 0.43897 0.691 1243.077 0.02254
-0.52658 -0.01476 0.42579 0.67735 0.44087 0.806 1243.107 0.02257
-0.52716 -0.01478 0.42626 0.67810 0.44276 1.158 1243.137 0.02259
-0.52775 -0.01479 0.42673 0.67885 0.44465 1.067 1243.167 0.02262
-0.52833 -0.01481 0.42720 0.67960 0.44654 0.951 1243.197 0.02264
-0.52891 -0.01483 0.42768 0.68035 0.44843 1.184 1243.227 0.02267
-0.52950 -0.01484 0.42815 0.68110 0.45033 0.979 1243.257 0.02269
-0.53008 -0.01486 0.42862 0.68185 0.45222 0.864 1243.286 0.02272
-0.53066 -0.01487 0.42909 0.68260 0.45411 1.069 1243.316 0.02274
-0.53124 -0.01489 0.42956 0.68335 0.45600 0.835 1243.346 0.02277
-0.53183 -0.01491 0.43003 0.68410 0.45790 0.979 1243.376 0.02279
-0.53241 -0.01492 0.43050 0.68485 0.45979 1.127 1243.406 0.02282
-0.53299 -0.01494 0.43098 0.68560 0.46168 0.952 1243.436 0.02284
-0.53358 -0.01496 0.43145 0.68635 0.46357 0.921 1243.466 0.02286
-0.53416 -0.01497 0.43192 0.68710 0.46547 0.952 1243.496 0.02289
-0.53474 -0.01499 0.43239 0.68785 0.46736 0.924 1243.525 0.02291
-0.53533 -0.01500 0.43286 0.68860 0.46925 0.864 1243.555 0.02294
-0.53591 -0.01502 0.43333 0.68935 0.47114 1.243 1243.585 0.02296
-0.53649 -0.01504 0.43381 0.69010 0.47304 0.893 1243.615 0.02299
-0.53708 -0.01505 0.43428 0.69085 0.47493 0.861 1243.645 0.02301
-0.53766 -0.01507 0.43475 0.69160 0.47682 1.183 1243.675 0.02304
-0.53824 -0.01509 0.43522 0.69235 0.47872 1.064 1243.705 0.02306
-0.53883 -0.01510 0.43569 0.69310 0.48061 1.065 1243.735 0.02309
-0.53941 -0.01512 0.43617 0.69385 0.48250 1.416 1243.764 0.02311
-0.54000 -0.01514 0.43664 0.69461 0.48440 1.065 1243.794 0.02313
-0.54058 -0.01515 0.43711 0.69536 0.48629 1.181 1243.824 0.02316
-0.54116 -0.01517 0.43758 0.69611 0.48818 1.007 1243.854 0.02318
-0.54175 -0.01518 0.43805 0.69686 0.49008 0.891 1243.884 0.02321
-0.54233 -0.01520 0.43852 0.69761 0.49197 0.775 1243.914 0.02323
-0.54291 -0.01522 0.43900 0.69836 0.49387 1.037 1243.944 0.02326
-0.54350 -0.01523 0.43947 0.69911 0.49576 0.921 1243.974 0.02328
-0.54408 -0.01525 0.43994 0.69986 0.49765 0.430 1244.003 0.02331
-0.54466 -0.01527 0.44041 0.70061 0.49955 0.544 1244.033 0.02333
-0.54525 -0.01528 0.44088 0.70136 0.50144 0.833 1244.063 0.02336
-0.54583 -0.01530 0.44136 0.70211 0.50334 0.748 1244.093 0.02338
-0.54642 -0.01532 0.44183 0.70286 0.50523 0.745 1244.123 0.02341
-0.54700 -0.01533 0.44230 0.70361 0.50712 0.778 1244.153 0.02343
-0.54758 -0.01535 0.44277 0.70437 0.50902 0.921 1244.183 0.02345
-0.54817 -0.01536 0.44324 0.70512 0.51091 0.920 1244.213 0.02348
-0.54875 -0.01538 0.44372 0.70587 0.51281 0.920 1244.243 0.02350
-0.54933 -0.01540 0.44419 0.70662 0.51470 0.919 1244.272 0.02353
-0.54992 -0.01541 0.44466 0.70737 0.51660 1.064 1244.302 0.02355
-0.55050 -0.01543 0.44513 0.70812 0.51849 0.774 1244.332 0.02358
-0.55109 -0.01545 0.44561 0.70887 0.52039 0.833 1244.362 0.02360
-0.55167 -0.01546 0.44608 0.70962 0.52228 0.921 1244.392 0.02363
-0.55225 -0.01548 0.44655 0.71037 0.52418 1.034 1244.422 0.02365
-0.55284 -0.01550 0.44702 0.71112 0.52607 1.062 1244.452 0.02368
-0.55342 -0.01551 0.44749 0.71188 0.52797 0.833 1244.482 0.02370
-0.55401 -0.01553 0.44797 0.71263 0.52986 1.090 1244.511 0.02372
-0.55459 -0.01554 0.44844 0.71338 0.53176 1.321 1244.541 0.02375
-0.55517 -0.01556 0.44891 0.71413 0.53365 1.030 1244.571 0.02377
-0.55576 -0.01558 0.44938 0.71488 0.53555 1.231 1244.601 0.02380
-0.55634 -0.01559 0.44986 0.71563 0.53744 1.146 1244.631 0.02382
-0.55693 -0.01561 0.45033 0.71638 0.53934 1.061 1244.661 0.02385
-0.55751 -0.01563 0.45080 0.71714 0.54123 1.264 1244.691 0.02387
-0.55809 -0.01564 0.45127 0.71789 0.54313 1.261 1244.721 0.02390
-0.55868 -0.01566 0.45174 0.71864 0.54502 1.032 1244.750 0.02392
-0.55926 -0.01568 0.45222 0.71939 0.54692 1.088 1244.780 0.02395
-0.55985 -0.01569 0.45269 0.72014 0.54882 1.175 1244.810 0.02397
-0.56043 -0.01571 0.45316 0.72089 0.55071 0.915 1244.840 0.02400
-0.56102 -0.01572 0.45363 0.72164 0.55261 0.741 1244.870 0.02402
-0.56160 -0.01574 0.45411 0.72240 0.55450 1.087 1244.900 0.02404
-0.56218 -0.01576 0.45458 0.72315 0.55640 1.114 1244.930 0.02407
-0.56277 -0.01577 0.45505 0.72390 0.55829 0.913 1244.960 0.02409
-0.56335 -0.01579 0.45552 0.72465 0.56019 0.942 1244.989 0.02412
-0.56394 -0.01581 0.45600 0.72540 0.56209 1.115 1245.019 0.02414
-0.56452 -0.01582 0.45647 0.72615 0.56398 1.027 1245.049 0.02417
-0.56511 -0.01584 0.45694 0.72691 0.56588 1.371 1245.079 0.02419
-0.56569 -0.01586 0.45741 0.72766 0.56778 1.259 1245.109 0.02422
-0.56628 -0.01587 0.45789 0.72841 0.56967 0.885 1245.139 0.02424
-0.56686 -0.01589 0.45836 0.72916 0.57157 0.974 1245.169 0.02427
-0.56744 -0.01591 0.45883 0.72991 0.57347 0.819 1245.199 0.02429
-0.56803 -0.01592 0.45931 0.73066 0.57536 1.004 1245.229 0.02431
