x y z dist_scaled dist_frac flux_norm sig_norm wavelength redshift
-0.08657 0.04126 0.49335 0.50258 0.00000 12.870 61.556 1236.115 0.01682
-0.08669 0.04132 0.49408 0.50333 0.00188 12.776 67.229 1236.145 0.01684
-0.08682 0.04138 0.49481 0.50407 0.00375 13.125 73.251 1236.175 0.01687
-0.08695 0.04144 0.49554 0.50481 0.00563 -7.648 74.709 1236.205 0.01689
-0.08708 0.04150 0.49627 0.50556 0.00751 37.853 94.102 1236.235 0.01692
-0.08721 0.04157 0.49700 0.50630 0.00938 -9.551 92.410 1236.265 0.01694
-0.08734 0.04163 0.49773 0.50705 0.01126 -10.153 104.608 1236.295 0.01697
-0.08746 0.04169 0.49846 0.50779 0.01313 57.083 136.966 1236.325 0.01699
-0.08759 0.04175 0.49919 0.50853 0.01501 -14.119 141.325 1236.355 0.01701
-0.08772 0.04181 0.49992 0.50928 0.01689 -15.560 170.828 1236.384 0.01704
-0.08785 0.04187 0.50065 0.51002 0.01876 -19.257 215.284 1236.414 0.01706
-0.08798 0.04193 0.50138 0.51077 0.02064 -23.757 289.910 1236.444 0.01709
-0.08810 0.04199 0.50211 0.51151 0.02252 -38.295 441.161 1236.474 0.01711
-0.08823 0.04205 0.50284 0.51225 0.02440 190.825 980.554 1236.504 0.01714
-0.08836 0.04212 0.50357 0.51300 0.02627 1633.722 -16846.275 1236.534 0.01716
-0.08849 0.04218 0.50430 0.51374 0.02815 -152.733 -886.886 1236.564 0.01719
-0.08862 0.04224 0.50503 0.51449 0.03003 46.306 -428.501 1236.594 0.01721
-0.08874 0.04230 0.50576 0.51523 0.03190 28.099 -289.720 1236.623 0.01724
-0.08887 0.04236 0.50649 0.51597 0.03378 84.966 -201.436 1236.653 0.01726
-0.08900 0.04242 0.50722 0.51672 0.03566 67.772 -162.484 1236.683 0.01729
-0.08913 0.04248 0.50796 0.51746 0.03754 -73.962 -170.423 1236.713 0.01731
-0.08926 0.04254 0.50869 0.51821 0.03941 -29.393 -136.858 1236.743 0.01733
-0.08939 0.04260 0.50942 0.51895 0.04129 6.270 -112.994 1236.773 0.01736
-0.08951 0.04267 0.51015 0.51970 0.04317 -24.774 -108.764 1236.803 0.01738
-0.08964 0.04273 0.51088 0.52044 0.04505 3.517 -91.566 1236.833 0.01741
-0.08977 0.04279 0.51161 0.52118 0.04692 -21.410 -90.123 1236.862 0.01743
-0.08990 0.04285 0.51234 0.52193 0.04880 24.281 -70.922 1236.892 0.01746
-0.09003 0.04291 0.51307 0.52267 0.05068 1.439 -71.767 1236.922 0.01748
-0.09016 0.04297 0.51380 0.52342 0.05256 21.360 -61.546 1236.952 0.01751
-0.09028 0.04303 0.51453 0.52416 0.05444 20.421 -57.797 1236.982 0.01753
-0.09041 0.04309 0.51526 0.52491 0.05631 -14.406 -63.902 1237.012 0.01756
-0.09054 0.04315 0.51599 0.52565 0.05819 2.367 -56.246 1237.042 0.01758
-0.09067 0.04322 0.51672 0.52640 0.06007 -59.364 -67.428 1237.072 0.01760
-0.09080 0.04328 0.51746 0.52714 0.06195 -12.566 -54.353 1237.101 0.01763
-0.09092 0.04334 0.51819 0.52788 0.06383 15.993 -44.697 1237.131 0.01765
-0.09105 0.04340 0.51892 0.52863 0.06571 1.721 -46.662 1237.161 0.01768
-0.09118 0.04346 0.51965 0.52937 0.06758 -11.226 -47.815 1237.191 0.01770
-0.09131 0.04352 0.52038 0.53012 0.06946 -10.245 -46.404 1237.221 0.01773
-0.09144 0.04358 0.52111 0.53086 0.07134 2.830 -41.591 1237.251 0.01775
-0.09157 0.04364 0.52184 0.53161 0.07322 2.801 -40.175 1237.281 0.01778
-0.09169 0.04370 0.52257 0.53235 0.07510 2.921 -38.870 1237.311 0.01780
-0.09182 0.04377 0.52330 0.53310 0.07698 13.550 -34.571 1237.341 0.01783
-0.09195 0.04383 0.52403 0.53384 0.07886 -8.044 -39.318 1237.370 0.01785
-0.09208 0.04389 0.52477 0.53459 0.08074 1.721 -35.506 1237.400 0.01788
-0.09221 0.04395 0.52550 0.53533 0.08261 -8.155 -36.849 1237.430 0.01790
-0.09234 0.04401 0.52623 0.53608 0.08449 11.188 -30.873 1237.460 0.01792
-0.09246 0.04407 0.52696 0.53682 0.08637 1.828 -32.789 1237.490 0.01795
-0.09259 0.04413 0.52769 0.53757 0.08825 1.442 -31.997 1237.520 0.01797
-0.09272 0.04419 0.52842 0.53831 0.09013 1.190 -31.254 1237.550 0.01800
-0.09285 0.04425 0.52915 0.53906 0.09201 9.811 -28.045 1237.580 0.01802
-0.09298 0.04432 0.52988 0.53980 0.09389 -7.362 -32.164 1237.609 0.01805
-0.09311 0.04438 0.53062 0.54055 0.09577 9.906 -26.870 1237.639 0.01807
-0.09323 0.04444 0.53135 0.54129 0.09765 1.830 -28.687 1237.669 0.01810
-0.09336 0.04450 0.53208 0.54204 0.09953 -14.478 -32.260 1237.699 0.01812
-0.09349 0.04456 0.53281 0.54278 0.10141 1.923 -27.607 1237.729 0.01815
-0.09362 0.04462 0.53354 0.54353 0.10329 1.889 -27.108 1237.759 0.01817
-0.09375 0.04468 0.53427 0.54427 0.10517 9.690 -24.448 1237.789 0.01819
-0.09388 0.04474 0.53500 0.54502 0.10705 2.003 -26.186 1237.819 0.01822
-0.09400 0.04481 0.53574 0.54576 0.10893 9.297 -23.644 1237.848 0.01824
-0.09413 0.04487 0.53647 0.54651 0.11081 9.150 -23.271 1237.878 0.01827
-0.09426 0.04493 0.53720 0.54725 0.11269 2.121 -24.966 1237.908 0.01829
-0.09439 0.04499 0.53793 0.54800 0.11457 1.839 -24.597 1237.938 0.01832
-0.09452 0.04505 0.53866 0.54874 0.11645 -5.416 -26.084 1237.968 0.01834
-0.09465 0.04511 0.53939 0.54949 0.11833 1.513 -23.909 1237.998 0.01837
-0.09477 0.04517 0.54013 0.55024 0.12021 -5.652 -25.377 1238.028 0.01839
-0.09490 0.04523 0.54086 0.55098 0.12209 -32.270 -30.234 1238.058 0.01842
-0.09503 0.04529 0.54159 0.55173 0.12397 -5.206 -24.526 1238.087 0.01844
-0.09516 0.04536 0.54232 0.55247 0.12585 8.200 -20.842 1238.117 0.01847
-0.09529 0.04542 0.54305 0.55322 0.12773 -4.538 -24.141 1238.147 0.01849
-0.09542 0.04548 0.54379 0.55396 0.12961 1.855 -22.181 1238.177 0.01851
-0.09554 0.04554 0.54452 0.55471 0.13149 8.001 -20.133 1238.207 0.01854
-0.09567 0.04560 0.54525 0.55545 0.13338 -17.333 -26.157 1238.237 0.01856
-0.09580 0.04566 0.54598 0.55620 0.13526 -4.911 -22.908 1238.267 0.01859
-0.09593 0.04572 0.54671 0.55695 0.13714 1.060 -21.254 1238.297 0.01861
-0.09606 0.04578 0.54745 0.55769 0.13902 7.166 -19.317 1238.327 0.01864
-0.09619 0.04585 0.54818 0.55844 0.14090 6.939 -19.133 1238.356 0.01866
-0.09632 0.04591 0.54891 0.55918 0.14278 1.067 -20.653 1238.386 0.01869
-0.09644 0.04597 0.54964 0.55993 0.14466 1.088 -20.468 1238.416 0.01871
-0.09657 0.04603 0.55037 0.56067 0.14654 1.211 -20.291 1238.446 0.01874
-0.09670 0.04609 0.55111 0.56142 0.14843 -4.505 -21.647 1238.476 0.01876
-0.09683 0.04615 0.55184 0.56217 0.15031 -4.413 -21.471 1238.506 0.01878
-0.09696 0.04621 0.55257 0.56291 0.15219 1.070 -19.800 1238.536 0.01881
-0.09709 0.04627 0.55330 0.56366 0.15407 -10.180 -22.367 1238.566 0.01883
-0.09721 0.04634 0.55403 0.56440 0.15595 -4.788 -20.983 1238.595 0.01886
-0.09734 0.04640 0.55477 0.56515 0.15783 6.410 -17.774 1238.625 0.01888
-0.09747 0.04646 0.55550 0.56590 0.15972 0.399 -19.231 1238.655 0.01891
-0.09760 0.04652 0.55623 0.56664 0.16160 5.966 -17.533 1238.685 0.01893
-0.09773 0.04658 0.55696 0.56739 0.16348 0.515 -18.979 1238.715 0.01896
-0.09786 0.04664 0.55770 0.56813 0.16536 0.473 -18.860 1238.745 0.01898
-0.09799 0.04670 0.55843 0.56888 0.16724 0.387 -18.746 1238.775 0.01901
-0.09811 0.04676 0.55916 0.56963 0.16913 -0.615 -18.637 1238.805 0.01903
-0.09824 0.04683 0.55989 0.57037 0.17101 0.595 -18.532 1238.834 0.01905
-0.09837 0.04689 0.56063 0.57112 0.17289 -5.773 -19.830 1238.864 0.01908
-0.09850 0.04695 0.56136 0.57186 0.17477 6.069 -16.829 1238.894 0.01910
-0.09863 0.04701 0.56209 0.57261 0.17665 5.881 -16.745 1238.924 0.01913
-0.09876 0.04707 0.56282 0.57336 0.17854 5.905 -16.663 1238.954 0.01915
-0.09889 0.04713 0.56356 0.57410 0.18042 6.060 -16.585 1238.984 0.01918
-0.09901 0.04719 0.56429 0.57485 0.18230 0.271 -17.988 1239.014 0.01920
-0.09914 0.04725 0.56502 0.57560 0.18419 -3.807 -19.270 1239.044 0.01923
-0.09927 0.04732 0.56575 0.57634 0.18607 6.161 -16.372 1239.073 0.01925
-0.09940 0.04738 0.56649 0.57709 0.18795 -4.310 -19.114 1239.103 0.01928
-0.09953 0.04744 0.56722 0.57784 0.18983 -5.383 -18.883 1239.133 0.01930
-0.09966 0.04750 0.56795 0.57858 0.19172 -0.170 -17.634 1239.163 0.01933
-0.09979 0.04756 0.56868 0.57933 0.19360 -0.057 -17.573 1239.193 0.01935
-0.09991 0.04762 0.56942 0.58007 0.19548 0.838 -17.515 1239.223 0.01937
-0.10004 0.04768 0.57015 0.58082 0.19737 0.992 -17.460 1239.253 0.01940
-0.10017 0.04774 0.57088 0.58157 0.19925 -3.822 -18.572 1239.283 0.01942
-0.10030 0.04781 0.57162 0.58231 0.20113 1.207 -17.358 1239.313 0.01945
-0.10043 0.04787 0.57235 0.58306 0.20302 6.204 -15.890 1239.342 0.01947
-0.10056 0.04793 0.57308 0.58381 0.20490 1.224 -17.268 1239.372 0.01950
-0.10069 0.04799 0.57381 0.58455 0.20678 1.346 -17.227 1239.402 0.01952
-0.10081 0.04805 0.57455 0.58530 0.20867 6.283 -15.777 1239.432 0.01955
-0.10094 0.04811 0.57528 0.58605 0.21055 0.961 -17.152 1239.462 0.01957
-0.10107 0.04817 0.57601 0.58679 0.21243 -9.041 -19.486 1239.492 0.01960
-0.10120 0.04824 0.57675 0.58754 0.21432 5.927 -15.684 1239.522 0.01962
-0.10133 0.04830 0.57748 0.58829 0.21620 1.022 -17.059 1239.552 0.01964
-0.10146 0.04836 0.57821 0.58904 0.21809 -3.706 -18.325 1239.581 0.01967
-0.10159 0.04842 0.57895 0.58978 0.21997 -8.290 -19.361 1239.611 0.01969
-0.10171 0.04848 0.57968 0.59053 0.22185 1.541 -16.987 1239.641 0.01972
-0.10184 0.04854 0.58041 0.59128 0.22374 1.568 -16.968 1239.671 0.01974
-0.10197 0.04860 0.58115 0.59202 0.22562 6.197 -15.559 1239.701 0.01977
-0.10210 0.04866 0.58188 0.59277 0.22751 1.321 -16.936 1239.731 0.01979
-0.10223 0.04873 0.58261 0.59352 0.22939 -3.341 -18.207 1239.761 0.01982
-0.10236 0.04879 0.58335 0.59426 0.23128 1.537 -16.913 1239.791 0.01984
-0.10249 0.04885 0.58408 0.59501 0.23316 1.365 -16.904 1239.820 0.01987
-0.10262 0.04891 0.58481 0.59576 0.23504 6.153 -15.511 1239.850 0.01989
-0.10274 0.04897 0.58555 0.59650 0.23693 -13.607 -20.165 1239.880 0.01992
-0.10287 0.04903 0.58628 0.59725 0.23881 1.337 -16.892 1239.910 0.01994
-0.10300 0.04909 0.58701 0.59800 0.24070 1.529 -16.893 1239.940 0.01996
-0.10313 0.04915 0.58775 0.59875 0.24258 6.128 -15.508 1239.970 0.01999
-0.10326 0.04922 0.58848 0.59949 0.24447 5.740 -15.511 1240.000 0.02001
-0.10339 0.04928 0.58921 0.60024 0.24635 -4.317 -18.037 1240.030 0.02004
-0.10352 0.04934 0.58995 0.60099 0.24824 0.577 -16.914 1240.059 0.02006
-0.10364 0.04940 0.59068 0.60174 0.25012 0.650 -16.925 1240.089 0.02009
-0.10377 0.04946 0.59141 0.60248 0.25201 5.729 -15.546 1240.119 0.02011
-0.10390 0.04952 0.59215 0.60323 0.25389 0.757 -16.951 1240.149 0.02014
-0.10403 0.04958 0.59288 0.60398 0.25578 0.858 -16.968 1240.179 0.02016
-0.10416 0.04965 0.59361 0.60472 0.25766 -4.079 -18.275 1240.209 0.02019
-0.10429 0.04971 0.59435 0.60547 0.25955 5.777 -15.610 1240.239 0.02021
-0.10442 0.04977 0.59508 0.60622 0.26144 0.979 -17.029 1240.269 0.02023
-0.10455 0.04983 0.59582 0.60697 0.26332 0.908 -17.054 1240.299 0.02026
-0.10467 0.04989 0.59655 0.60771 0.26521 0.902 -17.080 1240.328 0.02028
-0.10480 0.04995 0.59728 0.60846 0.26709 -4.027 -18.254 1240.358 0.02031
-0.10493 0.05001 0.59802 0.60921 0.26898 1.043 -17.139 1240.388 0.02033
-0.10506 0.05008 0.59875 0.60996 0.27086 -3.993 -18.475 1240.418 0.02036
-0.10519 0.05014 0.59948 0.61070 0.27275 1.040 -17.206 1240.448 0.02038
-0.10532 0.05020 0.60022 0.61145 0.27464 1.213 -17.243 1240.478 0.02041
-0.10545 0.05026 0.60095 0.61220 0.27652 -3.814 -18.593 1240.508 0.02043
-0.10558 0.05032 0.60169 0.61295 0.27841 6.136 -15.900 1240.538 0.02046
-0.10570 0.05038 0.60242 0.61370 0.28029 1.185 -17.365 1240.567 0.02048
-0.10583 0.05044 0.60315 0.61444 0.28218 6.010 -15.981 1240.597 0.02050
-0.10596 0.05050 0.60389 0.61519 0.28407 -3.902 -18.782 1240.627 0.02053
-0.10609 0.05057 0.60462 0.61594 0.28595 -3.958 -18.835 1240.657 0.02055
-0.10622 0.05063 0.60536 0.61669 0.28784 -3.661 -18.890 1240.687 0.02058
-0.10635 0.05069 0.60609 0.61743 0.28973 1.208 -17.611 1240.717 0.02060
-0.10648 0.05075 0.60682 0.61818 0.29161 6.280 -16.216 1240.747 0.02063
-0.10661 0.05081 0.60756 0.61893 0.29350 6.224 -16.269 1240.777 0.02065
-0.10674 0.05087 0.60829 0.61968 0.29539 -3.745 -18.974 1240.806 0.02068
-0.10686 0.05093 0.60903 0.62043 0.29727 1.302 -17.846 1240.836 0.02070
-0.10699 0.05100 0.60976 0.62117 0.29916 6.702 -16.440 1240.866 0.02073
-0.10712 0.05106 0.61050 0.62192 0.30105 -14.111 -21.529 1240.896 0.02075
-0.10725 0.05112 0.61123 0.62267 0.30293 1.143 -18.047 1240.926 0.02078
-0.10738 0.05118 0.61196 0.62342 0.30482 1.122 -18.118 1240.956 0.02080
-0.10751 0.05124 0.61270 0.62417 0.30671 6.493 -16.698 1240.986 0.02082
-0.10764 0.05130 0.61343 0.62491 0.30859 -9.347 -20.795 1241.016 0.02085
-0.10777 0.05136 0.61417 0.62566 0.31048 6.574 -16.840 1241.045 0.02087
-0.10789 0.05143 0.61490 0.62641 0.31237 1.485 -18.428 1241.075 0.02090
-0.10802 0.05149 0.61564 0.62716 0.31426 -9.195 -21.073 1241.105 0.02092
-0.10815 0.05155 0.61637 0.62791 0.31614 6.932 -17.071 1241.135 0.02095
-0.10828 0.05161 0.61711 0.62866 0.31803 6.669 -17.153 1241.165 0.02097
-0.10841 0.05167 0.61784 0.62940 0.31992 -4.036 -20.204 1241.195 0.02100
-0.10854 0.05173 0.61857 0.63015 0.32181 1.201 -18.873 1241.225 0.02102
-0.10867 0.05179 0.61931 0.63090 0.32369 0.930 -18.971 1241.255 0.02105
-0.10880 0.05186 0.62004 0.63165 0.32558 6.285 -17.504 1241.285 0.02107
-0.10893 0.05192 0.62078 0.63240 0.32747 6.401 -17.599 1241.314 0.02109
-0.10905 0.05198 0.62151 0.63315 0.32936 0.810 -19.279 1241.344 0.02112
-0.10918 0.05204 0.62225 0.63389 0.33125 6.305 -17.796 1241.374 0.02114
-0.10931 0.05210 0.62298 0.63464 0.33313 0.587 -19.499 1241.404 0.02117
-0.10944 0.05216 0.62372 0.63539 0.33502 -6.708 -20.927 1241.434 0.02119
-0.10957 0.05222 0.62445 0.63614 0.33691 -5.144 -21.230 1241.464 0.02122
-0.10970 0.05229 0.62519 0.63689 0.33880 -5.188 -21.360 1241.494 0.02124
-0.10983 0.05235 0.62592 0.63764 0.34069 0.684 -19.978 1241.524 0.02127
-0.10996 0.05241 0.62666 0.63838 0.34258 -0.272 -20.107 1241.553 0.02129
-0.11009 0.05247 0.62739 0.63913 0.34446 -11.813 -23.038 1241.583 0.02132
-0.11022 0.05253 0.62813 0.63988 0.34635 0.800 -20.373 1241.613 0.02134
-0.11034 0.05259 0.62886 0.64063 0.34824 -6.002 -22.068 1241.643 0.02137
-0.11047 0.05265 0.62960 0.64138 0.35013 -12.695 -23.512 1241.673 0.02139
-0.11060 0.05272 0.63033 0.64213 0.35202 6.706 -19.093 1241.703 0.02141
-0.11073 0.05278 0.63107 0.64288 0.35391 6.845 -19.231 1241.733 0.02144
-0.11086 0.05284 0.63180 0.64363 0.35580 -6.184 -22.707 1241.763 0.02146
-0.11099 0.05290 0.63254 0.64437 0.35769 6.886 -19.518 1241.792 0.02149
-0.11112 0.05296 0.63327 0.64512 0.35957 -0.871 -21.427 1241.822 0.02151
-0.11125 0.05302 0.63401 0.64587 0.36146 6.713 -19.820 1241.852 0.02154
-0.11138 0.05309 0.63474 0.64662 0.36335 6.766 -19.978 1241.882 0.02156
-0.11150 0.05315 0.63548 0.64737 0.36524 -14.926 -24.976 1241.912 0.02159
-0.11163 0.05321 0.63621 0.64812 0.36713 7.100 -20.306 1241.942 0.02161
-0.11176 0.05327 0.63695 0.64887 0.36902 7.192 -20.476 1241.972 0.02164
-0.11189 0.05333 0.63768 0.64962 0.37091 0.838 -22.499 1242.002 0.02166
-0.11202 0.05339 0.63842 0.65037 0.37280 -0.506 -22.695 1242.031 0.02168
-0.11215 0.05345 0.63915 0.65111 0.37469 0.594 -22.897 1242.061 0.02171
-0.11228 0.05352 0.63989 0.65186 0.37658 -6.069 -24.649 1242.091 0.02173
-0.11241 0.05358 0.64062 0.65261 0.37847 -6.435 -25.085 1242.121 0.02176
-0.11254 0.05364 0.64136 0.65336 0.38036 0.655 -23.534 1242.151 0.02178
-0.11267 0.05370 0.64209 0.65411 0.38225 7.557 -21.808 1242.181 0.02181
-0.11280 0.05376 0.64283 0.65486 0.38414 -6.229 -25.595 1242.211 0.02183
-0.11292 0.05382 0.64356 0.65561 0.38603 7.776 -22.237 1242.241 0.02186
-0.11305 0.05388 0.64430 0.65636 0.38792 0.987 -24.471 1242.271 0.02188
-0.11318 0.05395 0.64504 0.65711 0.38981 0.825 -24.722 1242.300 0.02191
-0.11331 0.05401 0.64577 0.65786 0.39170 8.053 -22.928 1242.330 0.02193
-0.11344 0.05407 0.64651 0.65861 0.39359 -28.208 -31.754 1242.360 0.02196
-0.11357 0.05413 0.64724 0.65936 0.39548 8.374 -23.423 1242.390 0.02198
-0.11370 0.05419 0.64798 0.66011 0.39737 0.911 -25.799 1242.420 0.02200
-0.11383 0.05425 0.64871 0.66085 0.39926 0.730 -26.088 1242.450 0.02203
-0.11396 0.05432 0.64945 0.66160 0.40115 -14.376 -30.037 1242.480 0.02205
-0.11409 0.05438 0.65018 0.66235 0.40304 0.877 -26.693 1242.510 0.02208
-0.11421 0.05444 0.65092 0.66310 0.40493 8.163 -24.791 1242.539 0.02210
-0.11434 0.05450 0.65166 0.66385 0.40682 7.869 -25.090 1242.569 0.02213
-0.11447 0.05456 0.65239 0.66460 0.40871 -0.068 -27.671 1242.599 0.02215
-0.11460 0.05462 0.65313 0.66535 0.41060 8.024 -25.716 1242.629 0.02218
-0.11473 0.05468 0.65386 0.66610 0.41249 -0.411 -29.622 1242.659 0.02220
-0.11486 0.05475 0.65460 0.66685 0.41438 -0.259 -28.743 1242.689 0.02223
-0.11499 0.05481 0.65533 0.66760 0.41628 -0.172 -29.123 1242.719 0.02225
-0.11512 0.05487 0.65607 0.66835 0.41817 -0.496 -29.515 1242.749 0.02227
-0.11525 0.05493 0.65681 0.66910 0.42006 8.053 -27.463 1242.778 0.02230
-0.11538 0.05499 0.65754 0.66985 0.42195 -0.805 -30.339 1242.808 0.02232
-0.11551 0.05505 0.65828 0.67060 0.42384 8.392 -30.220 1242.838 0.02235
-0.11564 0.05512 0.65901 0.67135 0.42573 -2.102 -34.061 1242.868 0.02237
-0.11576 0.05518 0.65975 0.67210 0.42762 -0.437 -31.682 1242.898 0.02240
-0.11589 0.05524 0.66049 0.67285 0.42951 -9.845 -34.313 1242.928 0.02242
-0.11602 0.05530 0.66122 0.67360 0.43141 8.930 -29.975 1242.958 0.02245
-0.11615 0.05536 0.66196 0.67435 0.43330 9.310 -30.447 1242.988 0.02247
-0.11628 0.05542 0.66270 0.67510 0.43519 -10.174 -35.958 1243.017 0.02250
-0.11641 0.05548 0.66343 0.67585 0.43708 -0.580 -34.255 1243.047 0.02252
-0.11654 0.05555 0.66417 0.67660 0.43897 9.774 -31.967 1243.077 0.02254
-0.11667 0.05561 0.66490 0.67735 0.44087 -20.440 -40.618 1243.107 0.02257
-0.11680 0.05567 0.66564 0.67810 0.44276 -0.589 -36.038 1243.137 0.02259
-0.11693 0.05573 0.66638 0.67885 0.44465 -0.679 -36.679 1243.167 0.02262
-0.11706 0.05579 0.66711 0.67960 0.44654 -1.096 -37.346 1243.197 0.02264
-0.11719 0.05585 0.66785 0.68035 0.44843 -1.120 -38.040 1243.227 0.02267
-0.11731 0.05592 0.66858 0.68110 0.45033 -12.489 -41.356 1243.257 0.02269
-0.11744 0.05598 0.66932 0.68185 0.45222 -1.794 -39.514 1243.286 0.02272
-0.11757 0.05604 0.67006 0.68260 0.45411 -48.443 -50.141 1243.316 0.02274
-0.11770 0.05610 0.67079 0.68335 0.45600 -1.798 -41.117 1243.346 0.02277
-0.11783 0.05616 0.67153 0.68410 0.45790 10.511 -38.526 1243.376 0.02279
-0.11796 0.05622 0.67227 0.68485 0.45979 -1.530 -42.866 1243.406 0.02282
-0.11809 0.05629 0.67300 0.68560 0.46168 -13.795 -47.124 1243.436 0.02284
-0.11822 0.05635 0.67374 0.68635 0.46357 11.493 -41.102 1243.466 0.02286
-0.11835 0.05641 0.67448 0.68710 0.46547 -14.715 -49.280 1243.496 0.02289
-0.11848 0.05647 0.67521 0.68785 0.46736 12.100 -43.032 1243.525 0.02291
-0.11861 0.05653 0.67595 0.68860 0.46925 13.152 -44.069 1243.555 0.02294
-0.11874 0.05659 0.67669 0.68935 0.47114 -0.153 -49.200 1243.585 0.02296
-0.11887 0.05665 0.67742 0.69010 0.47304 -0.303 -50.451 1243.615 0.02299
-0.11899 0.05672 0.67816 0.69085 0.47493 14.728 -47.518 1243.645 0.02301
-0.11912 0.05678 0.67890 0.69160 0.47682 -15.820 -56.718 1243.675 0.02304
-0.11925 0.05684 0.67963 0.69235 0.47872 15.149 -50.146 1243.705 0.02306
-0.11938 0.05690 0.68037 0.69310 0.48061 -16.777 -60.451 1243.735 0.02309
-0.11951 0.05696 0.68111 0.69385 0.48250 -34.517 -65.839 1243.764 0.02311
-0.11964 0.05702 0.68184 0.69461 0.48440 16.610 -54.697 1243.794 0.02313
-0.11977 0.05709 0.68258 0.69536 0.48629 -0.631 -61.453 1243.824 0.02316
-0.11990 0.05715 0.68332 0.69611 0.48818 -36.745 -72.214 1243.854 0.02318
-0.12003 0.05721 0.68405 0.69686 0.49008 -0.068 -65.558 1243.884 0.02321
-0.12016 0.05727 0.68479 0.69761 0.49197 -18.947 -72.972 1243.914 0.02323
-0.12029 0.05733 0.68553 0.69836 0.49387 0.900 -70.258 1243.944 0.02326
-0.12042 0.05739 0.68626 0.69911 0.49576 1.530 -72.873 1243.974 0.02328
-0.12055 0.05746 0.68700 0.69986 0.49765 -41.143 -86.160 1244.003 0.02331
-0.12068 0.05752 0.68774 0.70061 0.49955 3.993 -78.735 1244.033 0.02333
-0.12080 0.05758 0.68848 0.70136 0.50144 26.999 -75.299 1244.063 0.02336
-0.12093 0.05764 0.68921 0.70211 0.50334 27.318 -78.594 1244.093 0.02338
-0.12106 0.05770 0.68995 0.70286 0.50523 28.310 -82.191 1244.123 0.02341
-0.12119 0.05776 0.69069 0.70361 0.50712 29.803 -86.133 1244.153 0.02343
-0.12132 0.05783 0.69142 0.70437 0.50902 31.446 -90.470 1244.183 0.02345
-0.12145 0.05789 0.69216 0.70512 0.51091 3.494 -103.789 1244.213 0.02348
-0.12158 0.05795 0.69290 0.70587 0.51281 3.870 -109.595 1244.243 0.02350
-0.12171 0.05801 0.69364 0.70662 0.51470 5.416 -116.086 1244.272 0.02353
