x y z dist_scaled dist_frac flux_norm wavelength redshift
0.21238 0.06825 0.45046 0.50267 0.00000 0.601 1236.119 0.01682
0.21270 0.06835 0.45113 0.50342 0.00188 0.685 1236.149 0.01685
0.21301 0.06845 0.45180 0.50416 0.00376 0.788 1236.179 0.01687
0.21332 0.06856 0.45246 0.50491 0.00564 0.918 1236.209 0.01690
0.21364 0.06866 0.45313 0.50565 0.00752 0.883 1236.239 0.01692
0.21395 0.06876 0.45380 0.50639 0.00940 0.910 1236.269 0.01694
0.21427 0.06886 0.45446 0.50714 0.01128 1.016 1236.299 0.01697
0.21458 0.06896 0.45513 0.50788 0.01316 1.110 1236.328 0.01699
0.21490 0.06906 0.45580 0.50863 0.01504 0.969 1236.358 0.01702
0.21521 0.06916 0.45646 0.50937 0.01692 1.013 1236.388 0.01704
0.21553 0.06926 0.45713 0.51012 0.01880 0.888 1236.418 0.01707
0.21584 0.06936 0.45780 0.51086 0.02068 1.032 1236.448 0.01709
0.21615 0.06946 0.45847 0.51160 0.02256 1.132 1236.478 0.01712
0.21647 0.06957 0.45913 0.51235 0.02444 0.907 1236.508 0.01714
0.21678 0.06967 0.45980 0.51309 0.02632 1.029 1236.538 0.01717
0.21710 0.06977 0.46047 0.51384 0.02820 1.021 1236.568 0.01719
0.21741 0.06987 0.46113 0.51458 0.03008 0.982 1236.597 0.01721
0.21773 0.06997 0.46180 0.51533 0.03196 0.969 1236.627 0.01724
0.21804 0.07007 0.46247 0.51607 0.03385 1.012 1236.657 0.01726
0.21836 0.07017 0.46314 0.51682 0.03573 1.056 1236.687 0.01729
0.21867 0.07027 0.46380 0.51756 0.03761 0.977 1236.717 0.01731
0.21899 0.07037 0.46447 0.51831 0.03949 1.032 1236.747 0.01734
0.21930 0.07048 0.46514 0.51905 0.04137 1.019 1236.777 0.01736
0.21962 0.07058 0.46581 0.51979 0.04325 1.085 1236.807 0.01739
0.21993 0.07068 0.46647 0.52054 0.04513 1.034 1236.837 0.01741
0.22024 0.07078 0.46714 0.52128 0.04701 1.033 1236.866 0.01744
0.22056 0.07088 0.46781 0.52203 0.04890 1.011 1236.896 0.01746
0.22087 0.07098 0.46847 0.52277 0.05078 1.032 1236.926 0.01749
0.22119 0.07108 0.46914 0.52352 0.05266 1.053 1236.956 0.01751
0.22150 0.07118 0.46981 0.52426 0.05454 0.942 1236.986 0.01753
0.22182 0.07128 0.47048 0.52501 0.05642 1.039 1237.016 0.01756
0.22213 0.07139 0.47114 0.52575 0.05830 1.049 1237.046 0.01758
0.22245 0.07149 0.47181 0.52650 0.06019 1.016 1237.076 0.01761
0.22276 0.07159 0.47248 0.52724 0.06207 0.933 1237.106 0.01763
0.22308 0.07169 0.47315 0.52799 0.06395 1.037 1237.135 0.01766
0.22339 0.07179 0.47381 0.52873 0.06583 0.870 1237.165 0.01768
0.22371 0.07189 0.47448 0.52948 0.06771 0.919 1237.195 0.01771
0.22402 0.07199 0.47515 0.53022 0.06960 0.923 1237.225 0.01773
0.22434 0.07209 0.47582 0.53097 0.07148 0.988 1237.255 0.01776
0.22465 0.07220 0.47649 0.53171 0.07336 1.085 1237.285 0.01778
0.22497 0.07230 0.47715 0.53246 0.07524 1.003 1237.315 0.01780
0.22528 0.07240 0.47782 0.53320 0.07713 1.045 1237.345 0.01783
0.22560 0.07250 0.47849 0.53395 0.07901 1.011 1237.375 0.01785
0.22591 0.07260 0.47916 0.53469 0.08089 1.005 1237.405 0.01788
0.22622 0.07270 0.47982 0.53544 0.08277 1.048 1237.434 0.01790
0.22654 0.07280 0.48049 0.53618 0.08466 1.122 1237.464 0.01793
0.22685 0.07290 0.48116 0.53693 0.08654 0.889 1237.494 0.01795
0.22717 0.07300 0.48183 0.53767 0.08842 0.937 1237.524 0.01798
0.22748 0.07311 0.48250 0.53842 0.09030 0.931 1237.554 0.01800
0.22780 0.07321 0.48316 0.53917 0.09219 1.039 1237.584 0.01803
0.22811 0.07331 0.48383 0.53991 0.09407 0.839 1237.614 0.01805
0.22843 0.07341 0.48450 0.54066 0.09595 0.909 1237.644 0.01808
0.22874 0.07351 0.48517 0.54140 0.09784 1.108 1237.674 0.01810
0.22906 0.07361 0.48584 0.54215 0.09972 0.864 1237.703 0.01812
0.22937 0.07371 0.48650 0.54289 0.10160 1.046 1237.733 0.01815
0.22969 0.07381 0.48717 0.54364 0.10349 0.986 1237.763 0.01817
0.23000 0.07392 0.48784 0.54438 0.10537 0.953 1237.793 0.01820
0.23032 0.07402 0.48851 0.54513 0.10725 0.920 1237.823 0.01822
0.23063 0.07412 0.48918 0.54587 0.10914 0.989 1237.853 0.01825
0.23095 0.07422 0.48984 0.54662 0.11102 0.865 1237.883 0.01827
0.23126 0.07432 0.49051 0.54737 0.11290 0.875 1237.913 0.01830
0.23158 0.07442 0.49118 0.54811 0.11479 0.959 1237.943 0.01832
0.23189 0.07452 0.49185 0.54886 0.11667 0.990 1237.972 0.01835
0.23221 0.07462 0.49252 0.54960 0.11856 0.894 1238.002 0.01837
0.23252 0.07473 0.49319 0.55035 0.12044 0.930 1238.032 0.01840
0.23284 0.07483 0.49385 0.55109 0.12232 0.839 1238.062 0.01842
0.23315 0.07493 0.49452 0.55184 0.12421 0.753 1238.092 0.01844
0.23347 0.07503 0.49519 0.55259 0.12609 0.896 1238.122 0.01847
0.23379 0.07513 0.49586 0.55333 0.12798 1.018 1238.152 0.01849
0.23410 0.07523 0.49653 0.55408 0.12986 1.002 1238.182 0.01852
0.23442 0.07533 0.49720 0.55482 0.13175 0.953 1238.212 0.01854
0.23473 0.07543 0.49786 0.55557 0.13363 0.926 1238.242 0.01857
0.23505 0.07554 0.49853 0.55632 0.13551 1.021 1238.271 0.01859
0.23536 0.07564 0.49920 0.55706 0.13740 0.909 1238.301 0.01862
0.23568 0.07574 0.49987 0.55781 0.13928 0.977 1238.331 0.01864
0.23599 0.07584 0.50054 0.55855 0.14117 0.882 1238.361 0.01867
0.23631 0.07594 0.50121 0.55930 0.14305 0.960 1238.391 0.01869
0.23662 0.07604 0.50188 0.56005 0.14494 0.943 1238.421 0.01871
0.23694 0.07614 0.50254 0.56079 0.14682 0.948 1238.451 0.01874
0.23725 0.07624 0.50321 0.56154 0.14871 0.874 1238.481 0.01876
0.23757 0.07635 0.50388 0.56229 0.15059 0.757 1238.511 0.01879
0.23788 0.07645 0.50455 0.56303 0.15248 0.830 1238.540 0.01881
0.23820 0.07655 0.50522 0.56378 0.15436 0.930 1238.570 0.01884
0.23851 0.07665 0.50589 0.56452 0.15625 0.881 1238.600 0.01886
0.23883 0.07675 0.50656 0.56527 0.15813 0.923 1238.630 0.01889
0.23914 0.07685 0.50723 0.56602 0.16002 0.802 1238.660 0.01891
0.23946 0.07695 0.50789 0.56676 0.16191 0.959 1238.690 0.01894
0.23977 0.07706 0.50856 0.56751 0.16379 0.674 1238.720 0.01896
0.24009 0.07716 0.50923 0.56826 0.16568 0.900 1238.750 0.01899
0.24041 0.07726 0.50990 0.56900 0.16756 1.005 1238.780 0.01901
0.24072 0.07736 0.51057 0.56975 0.16945 0.978 1238.809 0.01903
0.24104 0.07746 0.51124 0.57050 0.17133 0.988 1238.839 0.01906
0.24135 0.07756 0.51191 0.57124 0.17322 0.887 1238.869 0.01908
0.24167 0.07766 0.51258 0.57199 0.17511 0.851 1238.899 0.01911
0.24198 0.07777 0.51325 0.57273 0.17699 0.771 1238.929 0.01913
0.24230 0.07787 0.51392 0.57348 0.17888 0.687 1238.959 0.01916
0.24261 0.07797 0.51458 0.57423 0.18076 0.818 1238.989 0.01918
0.24293 0.07807 0.51525 0.57497 0.18265 0.802 1239.019 0.01921
0.24324 0.07817 0.51592 0.57572 0.18454 0.864 1239.049 0.01923
0.24356 0.07827 0.51659 0.57647 0.18642 0.979 1239.078 0.01926
0.24388 0.07837 0.51726 0.57721 0.18831 0.911 1239.108 0.01928
0.24419 0.07847 0.51793 0.57796 0.19020 1.031 1239.138 0.01930
0.24451 0.07858 0.51860 0.57871 0.19208 0.816 1239.168 0.01933
0.24482 0.07868 0.51927 0.57946 0.19397 0.952 1239.198 0.01935
0.24514 0.07878 0.51994 0.58020 0.19586 0.904 1239.228 0.01938
0.24545 0.07888 0.52061 0.58095 0.19774 1.050 1239.258 0.01940
0.24577 0.07898 0.52128 0.58170 0.19963 1.033 1239.288 0.01943
0.24608 0.07908 0.52195 0.58244 0.20152 0.981 1239.318 0.01945
0.24640 0.07918 0.52262 0.58319 0.20340 0.903 1239.348 0.01948
0.24672 0.07929 0.52328 0.58394 0.20529 1.080 1239.377 0.01950
0.24703 0.07939 0.52395 0.58468 0.20718 1.033 1239.407 0.01953
0.24735 0.07949 0.52462 0.58543 0.20907 0.975 1239.437 0.01955
0.24766 0.07959 0.52529 0.58618 0.21095 1.074 1239.467 0.01958
0.24798 0.07969 0.52596 0.58692 0.21284 1.011 1239.497 0.01960
0.24829 0.07979 0.52663 0.58767 0.21473 0.813 1239.527 0.01962
0.24861 0.07989 0.52730 0.58842 0.21662 0.979 1239.557 0.01965
0.24892 0.08000 0.52797 0.58917 0.21850 0.963 1239.587 0.01967
0.24924 0.08010 0.52864 0.58991 0.22039 0.983 1239.617 0.01970
0.24956 0.08020 0.52931 0.59066 0.22228 1.003 1239.646 0.01972
0.24987 0.08030 0.52998 0.59141 0.22417 0.946 1239.676 0.01975
0.25019 0.08040 0.53065 0.59216 0.22605 0.956 1239.706 0.01977
0.25050 0.08050 0.53132 0.59290 0.22794 0.878 1239.736 0.01980
0.25082 0.08060 0.53199 0.59365 0.22983 0.925 1239.766 0.01982
0.25114 0.08071 0.53266 0.59440 0.23172 0.992 1239.796 0.01985
0.25145 0.08081 0.53333 0.59514 0.23361 0.966 1239.826 0.01987
0.25177 0.08091 0.53400 0.59589 0.23549 0.923 1239.856 0.01989
0.25208 0.08101 0.53467 0.59664 0.23738 0.996 1239.886 0.01992
0.25240 0.08111 0.53534 0.59739 0.23927 0.908 1239.915 0.01994
0.25271 0.08121 0.53601 0.59813 0.24116 0.913 1239.945 0.01997
0.25303 0.08132 0.53668 0.59888 0.24305 0.892 1239.975 0.01999
0.25335 0.08142 0.53735 0.59963 0.24494 1.011 1240.005 0.02002
0.25366 0.08152 0.53802 0.60038 0.24682 0.989 1240.035 0.02004
0.25398 0.08162 0.53869 0.60112 0.24871 0.948 1240.065 0.02007
0.25429 0.08172 0.53936 0.60187 0.25060 1.003 1240.095 0.02009
0.25461 0.08182 0.54003 0.60262 0.25249 0.944 1240.125 0.02012
0.25493 0.08192 0.54070 0.60337 0.25438 0.835 1240.155 0.02014
0.25524 0.08203 0.54137 0.60412 0.25627 0.902 1240.185 0.02017
0.25556 0.08213 0.54204 0.60486 0.25816 0.890 1240.214 0.02019
0.25587 0.08223 0.54271 0.60561 0.26005 0.873 1240.244 0.02021
0.25619 0.08233 0.54338 0.60636 0.26194 0.965 1240.274 0.02024
0.25650 0.08243 0.54405 0.60711 0.26382 1.042 1240.304 0.02026
0.25682 0.08253 0.54472 0.60785 0.26571 0.860 1240.334 0.02029
0.25714 0.08264 0.54539 0.60860 0.26760 1.007 1240.364 0.02031
0.25745 0.08274 0.54606 0.60935 0.26949 1.039 1240.394 0.02034
0.25777 0.08284 0.54673 0.61010 0.27138 1.013 1240.424 0.02036
0.25808 0.08294 0.54740 0.61085 0.27327 1.092 1240.454 0.02039
0.25840 0.08304 0.54807 0.61159 0.27516 0.972 1240.483 0.02041
0.25872 0.08314 0.54874 0.61234 0.27705 0.954 1240.513 0.02044
0.25903 0.08324 0.54941 0.61309 0.27894 1.064 1240.543 0.02046
0.25935 0.08335 0.55008 0.61384 0.28083 1.047 1240.573 0.02049
0.25966 0.08345 0.55075 0.61459 0.28272 0.922 1240.603 0.02051
0.25998 0.08355 0.55142 0.61533 0.28461 0.973 1240.633 0.02053
0.26030 0.08365 0.55209 0.61608 0.28650 1.072 1240.663 0.02056
0.26061 0.08375 0.55276 0.61683 0.28839 0.943 1240.693 0.02058
0.26093 0.08385 0.55343 0.61758 0.29028 1.101 1240.723 0.02061
0.26125 0.08396 0.55410 0.61833 0.29217 0.865 1240.752 0.02063
0.26156 0.08406 0.55477 0.61907 0.29406 1.065 1240.782 0.02066
0.26188 0.08416 0.55544 0.61982 0.29595 1.107 1240.812 0.02068
0.26219 0.08426 0.55611 0.62057 0.29784 0.952 1240.842 0.02071
0.26251 0.08436 0.55679 0.62132 0.29973 1.020 1240.872 0.02073
0.26283 0.08446 0.55746 0.62207 0.30162 0.966 1240.902 0.02076
0.26314 0.08457 0.55813 0.62282 0.30351 0.993 1240.932 0.02078
0.26346 0.08467 0.55880 0.62356 0.30540 0.963 1240.962 0.02080
0.26377 0.08477 0.55947 0.62431 0.30729 0.941 1240.992 0.02083
0.26409 0.08487 0.56014 0.62506 0.30918 0.951 1241.021 0.02085
0.26441 0.08497 0.56081 0.62581 0.31108 0.797 1241.051 0.02088
0.26472 0.08507 0.56148 0.62656 0.31297 0.987 1241.081 0.02090
0.26504 0.08517 0.56215 0.62731 0.31486 0.879 1241.111 0.02093
0.26536 0.08528 0.56282 0.62806 0.31675 0.889 1241.141 0.02095
0.26567 0.08538 0.56349 0.62880 0.31864 0.956 1241.171 0.02098
0.26599 0.08548 0.56416 0.62955 0.32053 0.915 1241.201 0.02100
0.26630 0.08558 0.56483 0.63030 0.32242 0.976 1241.231 0.02103
0.26662 0.08568 0.56551 0.63105 0.32431 0.848 1241.261 0.02105
0.26694 0.08578 0.56618 0.63180 0.32620 0.894 1241.291 0.02108
0.26725 0.08589 0.56685 0.63255 0.32810 0.900 1241.320 0.02110
0.26757 0.08599 0.56752 0.63330 0.32999 0.961 1241.350 0.02112
0.26789 0.08609 0.56819 0.63405 0.33188 1.109 1241.380 0.02115
0.26820 0.08619 0.56886 0.63479 0.33377 0.786 1241.410 0.02117
0.26852 0.08629 0.56953 0.63554 0.33566 1.022 1241.440 0.02120
0.26884 0.08639 0.57020 0.63629 0.33755 0.894 1241.470 0.02122
0.26915 0.08650 0.57087 0.63704 0.33945 0.895 1241.500 0.02125
0.26947 0.08660 0.57154 0.63779 0.34134 1.090 1241.530 0.02127
0.26978 0.08670 0.57222 0.63854 0.34323 1.058 1241.560 0.02130
0.27010 0.08680 0.57289 0.63929 0.34512 1.008 1241.589 0.02132
0.27042 0.08690 0.57356 0.64004 0.34701 0.905 1241.619 0.02135
0.27073 0.08700 0.57423 0.64079 0.34891 0.828 1241.649 0.02137
0.27105 0.08711 0.57490 0.64153 0.35080 0.926 1241.679 0.02139
0.27137 0.08721 0.57557 0.64228 0.35269 0.915 1241.709 0.02142
0.27168 0.08731 0.57624 0.64303 0.35458 0.879 1241.739 0.02144
0.27200 0.08741 0.57691 0.64378 0.35648 0.667 1241.769 0.02147
0.27232 0.08751 0.57759 0.64453 0.35837 0.596 1241.799 0.02149
0.27263 0.08762 0.57826 0.64528 0.36026 0.730 1241.829 0.02152
0.27295 0.08772 0.57893 0.64603 0.36215 0.711 1241.858 0.02154
0.27327 0.08782 0.57960 0.64678 0.36405 0.865 1241.888 0.02157
0.27358 0.08792 0.58027 0.64753 0.36594 0.799 1241.918 0.02159
0.27390 0.08802 0.58094 0.64828 0.36783 0.780 1241.948 0.02162
0.27422 0.08812 0.58161 0.64903 0.36973 0.863 1241.978 0.02164
0.27453 0.08823 0.58229 0.64978 0.37162 1.015 1242.008 0.02167
0.27485 0.08833 0.58296 0.65053 0.37351 0.968 1242.038 0.02169
0.27517 0.08843 0.58363 0.65127 0.37541 0.970 1242.068 0.02171
0.27548 0.08853 0.58430 0.65202 0.37730 1.039 1242.098 0.02174
0.27580 0.08863 0.58497 0.65277 0.37919 1.037 1242.128 0.02176
0.27612 0.08873 0.58564 0.65352 0.38109 0.976 1242.157 0.02179
0.27643 0.08884 0.58632 0.65427 0.38298 1.013 1242.187 0.02181
0.27675 0.08894 0.58699 0.65502 0.38487 1.020 1242.217 0.02184
0.27707 0.08904 0.58766 0.65577 0.38677 0.973 1242.247 0.02186
0.27738 0.08914 0.58833 0.65652 0.38866 0.968 1242.277 0.02189
0.27770 0.08924 0.58900 0.65727 0.39055 0.989 1242.307 0.02191
0.27802 0.08935 0.58967 0.65802 0.39245 0.927 1242.337 0.02194
0.27833 0.08945 0.59035 0.65877 0.39434 0.922 1242.367 0.02196
0.27865 0.08955 0.59102 0.65952 0.39623 0.850 1242.397 0.02199
0.27897 0.08965 0.59169 0.66027 0.39813 0.855 1242.426 0.02201
0.27928 0.08975 0.59236 0.66102 0.40002 0.830 1242.456 0.02203
0.27960 0.08985 0.59303 0.66177 0.40192 0.963 1242.486 0.02206
0.27992 0.08996 0.59370 0.66252 0.40381 0.897 1242.516 0.02208
0.28023 0.09006 0.59438 0.66327 0.40570 0.962 1242.546 0.02211
0.28055 0.09016 0.59505 0.66402 0.40760 1.102 1242.576 0.02213
0.28087 0.09026 0.59572 0.66477 0.40949 0.876 1242.606 0.02216
0.28118 0.09036 0.59639 0.66552 0.41139 0.798 1242.636 0.02218
0.28150 0.09046 0.59706 0.66627 0.41328 0.880 1242.666 0.02221
0.28182 0.09057 0.59774 0.66702 0.41518 0.931 1242.695 0.02223
0.28213 0.09067 0.59841 0.66777 0.41707 0.837 1242.725 0.02226
0.28245 0.09077 0.59908 0.66852 0.41897 1.072 1242.755 0.02228
0.28277 0.09087 0.59975 0.66927 0.42086 0.946 1242.785 0.02230
0.28309 0.09097 0.60043 0.67002 0.42276 1.012 1242.815 0.02233
0.28340 0.09108 0.60110 0.67077 0.42465 0.879 1242.845 0.02235
0.28372 0.09118 0.60177 0.67152 0.42655 0.915 1242.875 0.02238
0.28404 0.09128 0.60244 0.67227 0.42844 1.063 1242.905 0.02240
0.28435 0.09138 0.60311 0.67302 0.43034 0.841 1242.935 0.02243
0.28467 0.09148 0.60379 0.67377 0.43223 1.030 1242.964 0.02245
0.28499 0.09159 0.60446 0.67452 0.43413 1.042 1242.994 0.02248
0.28530 0.09169 0.60513 0.67527 0.43602 0.901 1243.024 0.02250
0.28562 0.09179 0.60580 0.67602 0.43792 0.915 1243.054 0.02253
0.28594 0.09189 0.60648 0.67677 0.43981 1.122 1243.084 0.02255
0.28625 0.09199 0.60715 0.67752 0.44171 0.898 1243.114 0.02258
0.28657 0.09209 0.60782 0.67827 0.44360 1.157 1243.144 0.02260
0.28689 0.09220 0.60849 0.67902 0.44550 0.979 1243.174 0.02262
0.28721 0.09230 0.60917 0.67977 0.44740 1.039 1243.204 0.02265
0.28752 0.09240 0.60984 0.68052 0.44929 0.912 1243.234 0.02267
0.28784 0.09250 0.61051 0.68127 0.45119 0.953 1243.263 0.02270
0.28816 0.09260 0.61118 0.68202 0.45308 0.933 1243.293 0.02272
0.28847 0.09271 0.61186 0.68277 0.45498 0.933 1243.323 0.02275
0.28879 0.09281 0.61253 0.68352 0.45688 0.897 1243.353 0.02277
0.28911 0.09291 0.61320 0.68427 0.45877 1.017 1243.383 0.02280
0.28943 0.09301 0.61387 0.68502 0.46067 0.960 1243.413 0.02282
0.28974 0.09311 0.61455 0.68578 0.46256 0.925 1243.443 0.02285
0.29006 0.09322 0.61522 0.68653 0.46446 0.920 1243.473 0.02287
0.29038 0.09332 0.61589 0.68728 0.46636 1.092 1243.503 0.02289
0.29069 0.09342 0.61656 0.68803 0.46825 0.984 1243.532 0.02292
0.29101 0.09352 0.61724 0.68878 0.47015 1.055 1243.562 0.02294
0.29133 0.09362 0.61791 0.68953 0.47205 1.160 1243.592 0.02297
0.29165 0.09373 0.61858 0.69028 0.47394 1.098 1243.622 0.02299
0.29196 0.09383 0.61926 0.69103 0.47584 1.025 1243.652 0.02302
0.29228 0.09393 0.61993 0.69178 0.47774 1.083 1243.682 0.02304
0.29260 0.09403 0.62060 0.69253 0.47963 1.099 1243.712 0.02307
0.29291 0.09413 0.62127 0.69328 0.48153 0.965 1243.742 0.02309
0.29323 0.09423 0.62195 0.69403 0.48343 1.105 1243.772 0.02312
0.29355 0.09434 0.62262 0.69478 0.48532 0.939 1243.801 0.02314
0.29387 0.09444 0.62329 0.69554 0.48722 1.033 1243.831 0.02317
0.29418 0.09454 0.62397 0.69629 0.48912 1.023 1243.861 0.02319
0.29450 0.09464 0.62464 0.69704 0.49102 1.044 1243.891 0.02321
0.29482 0.09474 0.62531 0.69779 0.49291 1.019 1243.921 0.02324
0.29514 0.09485 0.62598 0.69854 0.49481 1.092 1243.951 0.02326
0.29545 0.09495 0.62666 0.69929 0.49671 1.021 1243.981 0.02329
0.29577 0.09505 0.62733 0.70004 0.49861 1.026 1244.011 0.02331
0.29609 0.09515 0.62800 0.70079 0.50050 0.938 1244.041 0.02334
0.29641 0.09525 0.62868 0.70154 0.50240 1.041 1244.071 0.02336
0.29672 0.09536 0.62935 0.70230 0.50430 1.062 1244.100 0.02339
0.29704 0.09546 0.63002 0.70305 0.50620 1.002 1244.130 0.02341
0.29736 0.09556 0.63070 0.70380 0.50809 1.086 1244.160 0.02344
0.29767 0.09566 0.63137 0.70455 0.50999 1.026 1244.190 0.02346
0.29799 0.09576 0.63204 0.70530 0.51189 0.978 1244.220 0.02348
0.29831 0.09587 0.63272 0.70605 0.51379 1.046 1244.250 0.02351
0.29863 0.09597 0.63339 0.70680 0.51569 0.936 1244.280 0.02353
0.29894 0.09607 0.63406 0.70755 0.51759 1.017 1244.310 0.02356
0.29926 0.09617 0.63474 0.70831 0.51948 1.030 1244.340 0.02358
0.29958 0.09627 0.63541 0.70906 0.52138 0.981 1244.369 0.02361
0.29990 0.09638 0.63608 0.70981 0.52328 0.997 1244.399 0.02363
0.30021 0.09648 0.63676 0.71056 0.52518 1.055 1244.429 0.02366
0.30053 0.09658 0.63743 0.71131 0.52708 1.105 1244.459 0.02368
0.30085 0.09668 0.63810 0.71206 0.52898 1.022 1244.489 0.02371
0.30117 0.09679 0.63878 0.71282 0.53087 1.146 1244.519 0.02373
0.30148 0.09689 0.63945 0.71357 0.53277 1.046 1244.549 0.02376
0.30180 0.09699 0.64012 0.71432 0.53467 1.091 1244.579 0.02378
0.30212 0.09709 0.64080 0.71507 0.53657 1.079 1244.609 0.02380
0.30244 0.09719 0.64147 0.71582 0.53847 1.049 1244.638 0.02383
0.30276 0.09730 0.64215 0.71657 0.54037 1.107 1244.668 0.02385
0.30307 0.09740 0.64282 0.71733 0.54227 1.022 1244.698 0.02388
0.30339 0.09750 0.64349 0.71808 0.54417 1.044 1244.728 0.02390
0.30371 0.09760 0.64417 0.71883 0.54607 0.998 1244.758 0.02393
0.30403 0.09770 0.64484 0.71958 0.54797 1.051 1244.788 0.02395
0.30434 0.09781 0.64551 0.72033 0.54987 0.941 1244.818 0.02398
0.30466 0.09791 0.64619 0.72108 0.55176 1.110 1244.848 0.02400
0.30498 0.09801 0.64686 0.72184 0.55366 1.062 1244.878 0.02403
0.30530 0.09811 0.64754 0.72259 0.55556 1.015 1244.907 0.02405
0.30561 0.09821 0.64821 0.72334 0.55746 1.167 1244.937 0.02408
0.30593 0.09832 0.64888 0.72409 0.55936 1.074 1244.967 0.02410
0.30625 0.09842 0.64956 0.72484 0.56126 1.132 1244.997 0.02412
0.30657 0.09852 0.65023 0.72560 0.56316 1.075 1245.027 0.02415
0.30689 0.09862 0.65091 0.72635 0.56506 1.017 1245.057 0.02417
0.30720 0.09872 0.65158 0.72710 0.56696 0.998 1245.087 0.02420
0.30752 0.09883 0.65225 0.72785 0.56886 1.145 1245.117 0.02422
0.30784 0.09893 0.65293 0.72860 0.57076 1.030 1245.147 0.02425
0.30816 0.09903 0.65360 0.72936 0.57266 1.083 1245.177 0.02427
0.30847 0.09913 0.65428 0.73011 0.57456 0.957 1245.206 0.02430
0.30879 0.09924 0.65495 0.73086 0.57646 1.009 1245.236 0.02432
0.30911 0.09934 0.65562 0.73161 0.57836 0.914 1245.266 0.02435
0.30943 0.09944 0.65630 0.73237 0.58026 0.957 1245.296 0.02437
0.30975 0.09954 0.65697 0.73312 0.58216 1.016 1245.326 0.02439
0.31006 0.09964 0.65765 0.73387 0.58407 1.053 1245.356 0.02442
0.31038 0.09975 0.65832 0.73462 0.58597 0.953 1245.386 0.02444
0.31070 0.09985 0.65899 0.73538 0.58787 1.119 1245.416 0.02447
0.31102 0.09995 0.65967 0.73613 0.58977 1.012 1245.446 0.02449
0.31133 0.10005 0.66034 0.73688 0.59167 0.983 1245.475 0.02452
0.31165 0.10015 0.66102 0.73763 0.59357 0.951 1245.505 0.02454
0.31197 0.10026 0.66169 0.73839 0.59547 1.046 1245.535 0.02457
