x y z dist_scaled dist_frac flux_norm sig_norm wavelength redshift
0.29651 0.11979 0.38771 0.50258 0.00000 0.940 0.202 1236.115 0.01682
0.29695 0.11997 0.38829 0.50333 0.00188 1.218 0.223 1236.145 0.01684
0.29739 0.12014 0.38886 0.50407 0.00375 1.239 0.225 1236.175 0.01687
0.29782 0.12032 0.38944 0.50481 0.00563 0.893 0.198 1236.205 0.01689
0.29826 0.12050 0.39001 0.50556 0.00751 0.739 0.187 1236.235 0.01692
0.29870 0.12067 0.39058 0.50630 0.00938 1.084 0.214 1236.265 0.01694
0.29914 0.12085 0.39116 0.50705 0.01126 1.248 0.226 1236.295 0.01697
0.29958 0.12103 0.39173 0.50779 0.01313 0.973 0.206 1236.325 0.01699
0.30002 0.12121 0.39231 0.50853 0.01501 1.013 0.210 1236.355 0.01701
0.30046 0.12138 0.39288 0.50928 0.01689 0.984 0.208 1236.384 0.01704
0.30090 0.12156 0.39345 0.51002 0.01876 1.186 0.222 1236.414 0.01706
0.30134 0.12174 0.39403 0.51077 0.02064 0.810 0.193 1236.444 0.01709
0.30177 0.12192 0.39460 0.51151 0.02252 0.857 0.197 1236.474 0.01711
0.30221 0.12209 0.39518 0.51225 0.02440 1.107 0.217 1236.504 0.01714
0.30265 0.12227 0.39575 0.51300 0.02627 0.732 0.187 1236.534 0.01716
0.30309 0.12245 0.39632 0.51374 0.02815 1.057 0.213 1236.564 0.01719
0.30353 0.12263 0.39690 0.51449 0.03003 1.187 0.222 1236.594 0.01721
0.30397 0.12280 0.39747 0.51523 0.03190 1.083 0.214 1236.623 0.01724
0.30441 0.12298 0.39805 0.51597 0.03378 1.281 0.229 1236.653 0.01726
0.30485 0.12316 0.39862 0.51672 0.03566 1.184 0.222 1236.683 0.01729
0.30529 0.12333 0.39919 0.51746 0.03754 1.481 0.242 1236.713 0.01731
0.30573 0.12351 0.39977 0.51821 0.03941 1.260 0.227 1236.743 0.01733
0.30617 0.12369 0.40034 0.51895 0.04129 0.934 0.203 1236.773 0.01736
0.30660 0.12387 0.40092 0.51970 0.04317 0.782 0.190 1236.803 0.01738
0.30704 0.12404 0.40149 0.52044 0.04505 1.109 0.216 1236.833 0.01741
0.30748 0.12422 0.40206 0.52118 0.04692 0.982 0.206 1236.862 0.01743
0.30792 0.12440 0.40264 0.52193 0.04880 0.883 0.199 1236.892 0.01746
0.30836 0.12458 0.40321 0.52267 0.05068 0.910 0.200 1236.922 0.01748
0.30880 0.12475 0.40379 0.52342 0.05256 1.015 0.208 1236.952 0.01751
0.30924 0.12493 0.40436 0.52416 0.05444 0.936 0.202 1236.982 0.01753
0.30968 0.12511 0.40494 0.52491 0.05631 1.131 0.216 1237.012 0.01756
0.31012 0.12529 0.40551 0.52565 0.05819 1.205 0.221 1237.042 0.01758
0.31056 0.12546 0.40609 0.52640 0.06007 0.516 0.164 1237.072 0.01760
0.31100 0.12564 0.40666 0.52714 0.06195 1.304 0.228 1237.101 0.01763
0.31144 0.12582 0.40723 0.52788 0.06383 1.359 0.233 1237.131 0.01765
0.31187 0.12600 0.40781 0.52863 0.06571 0.831 0.192 1237.161 0.01768
0.31231 0.12617 0.40838 0.52937 0.06758 1.278 0.226 1237.191 0.01770
0.31275 0.12635 0.40896 0.53012 0.06946 0.914 0.200 1237.221 0.01773
0.31319 0.12653 0.40953 0.53086 0.07134 0.895 0.198 1237.251 0.01775
0.31363 0.12671 0.41011 0.53161 0.07322 0.804 0.189 1237.281 0.01778
0.31407 0.12688 0.41068 0.53235 0.07510 0.829 0.191 1237.311 0.01780
0.31451 0.12706 0.41126 0.53310 0.07698 0.860 0.196 1237.341 0.01783
0.31495 0.12724 0.41183 0.53384 0.07886 0.933 0.199 1237.370 0.01785
0.31539 0.12742 0.41240 0.53459 0.08074 1.085 0.211 1237.400 0.01788
0.31583 0.12759 0.41298 0.53533 0.08261 0.859 0.193 1237.430 0.01790
0.31627 0.12777 0.41355 0.53608 0.08449 1.080 0.212 1237.460 0.01792
0.31671 0.12795 0.41413 0.53682 0.08637 0.729 0.184 1237.490 0.01795
0.31715 0.12813 0.41470 0.53757 0.08825 0.997 0.205 1237.520 0.01797
0.31759 0.12830 0.41528 0.53831 0.09013 0.917 0.199 1237.550 0.01800
0.31803 0.12848 0.41585 0.53906 0.09201 1.186 0.220 1237.580 0.01802
0.31847 0.12866 0.41643 0.53980 0.09389 0.974 0.205 1237.609 0.01805
0.31891 0.12884 0.41700 0.54055 0.09577 0.875 0.196 1237.639 0.01807
0.31935 0.12901 0.41758 0.54129 0.09765 0.998 0.205 1237.669 0.01810
0.31979 0.12919 0.41815 0.54204 0.09953 1.224 0.223 1237.699 0.01812
0.32023 0.12937 0.41873 0.54278 0.10141 1.122 0.216 1237.729 0.01815
0.32066 0.12955 0.41930 0.54353 0.10329 1.099 0.214 1237.759 0.01817
0.32110 0.12973 0.41988 0.54427 0.10517 1.122 0.216 1237.789 0.01819
0.32154 0.12990 0.42045 0.54502 0.10705 0.997 0.206 1237.819 0.01822
0.32198 0.13008 0.42103 0.54576 0.10893 1.074 0.212 1237.848 0.01824
0.32242 0.13026 0.42160 0.54651 0.11081 0.775 0.188 1237.878 0.01827
0.32286 0.13044 0.42218 0.54725 0.11269 1.195 0.221 1237.908 0.01829
0.32330 0.13061 0.42275 0.54800 0.11457 1.046 0.210 1237.938 0.01832
0.32374 0.13079 0.42333 0.54874 0.11645 1.270 0.226 1237.968 0.01834
0.32418 0.13097 0.42390 0.54949 0.11833 0.994 0.206 1237.998 0.01837
0.32462 0.13115 0.42448 0.55024 0.12021 1.120 0.215 1238.028 0.01839
0.32506 0.13132 0.42505 0.55098 0.12209 1.169 0.219 1238.058 0.01842
0.32550 0.13150 0.42563 0.55173 0.12397 1.094 0.213 1238.087 0.01844
0.32594 0.13168 0.42620 0.55247 0.12585 0.968 0.204 1238.117 0.01847
0.32638 0.13186 0.42678 0.55322 0.12773 0.944 0.202 1238.147 0.01849
0.32682 0.13203 0.42735 0.55396 0.12961 1.018 0.207 1238.177 0.01851
0.32726 0.13221 0.42793 0.55471 0.13149 0.993 0.206 1238.207 0.01854
0.32770 0.13239 0.42850 0.55545 0.13338 0.968 0.204 1238.237 0.01856
0.32814 0.13257 0.42908 0.55620 0.13526 1.041 0.209 1238.267 0.01859
0.32858 0.13275 0.42965 0.55695 0.13714 1.164 0.218 1238.297 0.01861
0.32902 0.13292 0.43023 0.55769 0.13902 0.967 0.203 1238.327 0.01864
0.32946 0.13310 0.43080 0.55844 0.14090 0.989 0.205 1238.356 0.01866
0.32990 0.13328 0.43138 0.55918 0.14278 1.013 0.207 1238.386 0.01869
0.33034 0.13346 0.43195 0.55993 0.14466 1.114 0.214 1238.416 0.01871
0.33078 0.13363 0.43253 0.56067 0.14654 1.209 0.221 1238.446 0.01874
0.33122 0.13381 0.43311 0.56142 0.14843 0.936 0.201 1238.476 0.01876
0.33166 0.13399 0.43368 0.56217 0.15031 0.888 0.197 1238.506 0.01878
0.33210 0.13417 0.43426 0.56291 0.15219 0.984 0.205 1238.536 0.01881
0.33254 0.13435 0.43483 0.56366 0.15407 1.163 0.218 1238.566 0.01883
0.33298 0.13452 0.43541 0.56440 0.15595 0.839 0.193 1238.595 0.01886
0.33342 0.13470 0.43598 0.56515 0.15783 0.938 0.201 1238.625 0.01888
0.33386 0.13488 0.43656 0.56590 0.15972 0.937 0.201 1238.655 0.01891
0.33430 0.13506 0.43713 0.56664 0.16160 0.964 0.203 1238.685 0.01893
0.33474 0.13523 0.43771 0.56739 0.16348 0.768 0.187 1238.715 0.01896
0.33518 0.13541 0.43828 0.56813 0.16536 1.004 0.205 1238.745 0.01898
0.33562 0.13559 0.43886 0.56888 0.16724 0.988 0.203 1238.775 0.01901
0.33606 0.13577 0.43944 0.56963 0.16913 0.814 0.188 1238.805 0.01903
0.33650 0.13595 0.44001 0.57037 0.17101 0.984 0.203 1238.834 0.01905
0.33694 0.13612 0.44059 0.57112 0.17289 0.850 0.193 1238.864 0.01908
0.33738 0.13630 0.44116 0.57186 0.17477 0.878 0.195 1238.894 0.01910
0.33782 0.13648 0.44174 0.57261 0.17665 0.948 0.201 1238.924 0.01913
0.33826 0.13666 0.44231 0.57336 0.17854 0.843 0.192 1238.954 0.01915
0.33870 0.13684 0.44289 0.57410 0.18042 0.810 0.186 1238.984 0.01918
0.33914 0.13701 0.44347 0.57485 0.18230 1.087 0.211 1239.014 0.01920
0.33958 0.13719 0.44404 0.57560 0.18419 1.096 0.212 1239.044 0.01923
0.34002 0.13737 0.44462 0.57634 0.18607 1.199 0.218 1239.073 0.01925
0.34046 0.13755 0.44519 0.57709 0.18795 0.591 0.171 1239.103 0.01928
0.34091 0.13772 0.44577 0.57784 0.18983 0.985 0.204 1239.133 0.01930
0.34135 0.13790 0.44634 0.57858 0.19172 1.032 0.207 1239.163 0.01933
0.34179 0.13808 0.44692 0.57933 0.19360 0.985 0.203 1239.193 0.01935
0.34223 0.13826 0.44750 0.58007 0.19548 0.714 0.182 1239.223 0.01937
0.34267 0.13844 0.44807 0.58082 0.19737 0.958 0.202 1239.253 0.01940
0.34311 0.13861 0.44865 0.58157 0.19925 0.857 0.194 1239.283 0.01942
0.34355 0.13879 0.44922 0.58231 0.20113 0.859 0.194 1239.313 0.01945
0.34399 0.13897 0.44980 0.58306 0.20302 0.959 0.202 1239.342 0.01947
0.34443 0.13915 0.45038 0.58381 0.20490 0.908 0.198 1239.372 0.01950
0.34487 0.13933 0.45095 0.58455 0.20678 0.837 0.192 1239.402 0.01952
0.34531 0.13950 0.45153 0.58530 0.20867 1.178 0.218 1239.432 0.01955
0.34575 0.13968 0.45210 0.58605 0.21055 0.885 0.196 1239.462 0.01957
0.34619 0.13986 0.45268 0.58679 0.21243 1.007 0.205 1239.492 0.01960
0.34663 0.14004 0.45326 0.58754 0.21432 1.153 0.216 1239.522 0.01962
0.34707 0.14022 0.45383 0.58829 0.21620 1.254 0.222 1239.552 0.01964
0.34751 0.14039 0.45441 0.58904 0.21809 0.785 0.187 1239.581 0.01967
0.34795 0.14057 0.45498 0.58978 0.21997 0.957 0.201 1239.611 0.01969
0.34839 0.14075 0.45556 0.59053 0.22185 1.105 0.212 1239.641 0.01972
0.34883 0.14093 0.45614 0.59128 0.22374 0.906 0.197 1239.671 0.01974
0.34928 0.14111 0.45671 0.59202 0.22562 0.933 0.199 1239.701 0.01977
0.34972 0.14128 0.45729 0.59277 0.22751 0.877 0.195 1239.731 0.01979
0.35016 0.14146 0.45787 0.59352 0.22939 1.072 0.208 1239.761 0.01982
0.35060 0.14164 0.45844 0.59426 0.23128 1.027 0.206 1239.791 0.01984
0.35104 0.14182 0.45902 0.59501 0.23316 0.756 0.185 1239.820 0.01987
0.35148 0.14200 0.45959 0.59576 0.23504 0.907 0.197 1239.850 0.01989
0.35192 0.14217 0.46017 0.59650 0.23693 1.049 0.208 1239.880 0.01992
0.35236 0.14235 0.46075 0.59725 0.23881 1.200 0.218 1239.910 0.01994
0.35280 0.14253 0.46132 0.59800 0.24070 1.245 0.222 1239.940 0.01996
0.35324 0.14271 0.46190 0.59875 0.24258 0.882 0.195 1239.970 0.01999
0.35368 0.14289 0.46248 0.59949 0.24447 0.858 0.193 1240.000 0.02001
0.35412 0.14306 0.46305 0.60024 0.24635 0.905 0.197 1240.030 0.02004
0.35456 0.14324 0.46363 0.60099 0.24824 1.002 0.204 1240.059 0.02006
0.35501 0.14342 0.46421 0.60174 0.25012 0.908 0.197 1240.089 0.02009
0.35545 0.14360 0.46478 0.60248 0.25201 1.102 0.211 1240.119 0.02011
0.35589 0.14378 0.46536 0.60323 0.25389 1.004 0.204 1240.149 0.02014
0.35633 0.14396 0.46594 0.60398 0.25578 0.865 0.192 1240.179 0.02016
0.35677 0.14413 0.46651 0.60472 0.25766 1.210 0.218 1240.209 0.02019
0.35721 0.14431 0.46709 0.60547 0.25955 0.904 0.192 1240.239 0.02021
0.35765 0.14449 0.46767 0.60622 0.26144 0.787 0.177 1240.269 0.02023
0.35809 0.14467 0.46824 0.60697 0.26332 0.989 0.198 1240.299 0.02026
0.35853 0.14485 0.46882 0.60771 0.26521 0.725 0.169 1240.328 0.02028
0.35897 0.14502 0.46939 0.60846 0.26709 1.123 0.211 1240.358 0.02031
0.35941 0.14520 0.46997 0.60921 0.26898 1.160 0.214 1240.388 0.02033
0.35986 0.14538 0.47055 0.60996 0.27086 0.683 0.166 1240.418 0.02036
0.36030 0.14556 0.47113 0.61070 0.27275 1.062 0.202 1240.448 0.02038
0.36074 0.14574 0.47170 0.61145 0.27464 0.735 0.179 1240.478 0.02041
0.36118 0.14592 0.47228 0.61220 0.27652 1.214 0.217 1240.508 0.02043
0.36162 0.14609 0.47286 0.61295 0.27841 0.684 0.175 1240.538 0.02046
0.36206 0.14627 0.47343 0.61370 0.28029 1.081 0.206 1240.567 0.02048
0.36250 0.14645 0.47401 0.61444 0.28218 0.990 0.201 1240.597 0.02050
0.36294 0.14663 0.47459 0.61519 0.28407 0.839 0.187 1240.627 0.02053
0.36338 0.14681 0.47516 0.61594 0.28595 0.573 0.165 1240.657 0.02055
0.36383 0.14698 0.47574 0.61669 0.28784 1.023 0.202 1240.687 0.02058
0.36427 0.14716 0.47632 0.61743 0.28973 1.036 0.205 1240.717 0.02060
0.36471 0.14734 0.47689 0.61818 0.29161 0.745 0.181 1240.747 0.02063
0.36515 0.14752 0.47747 0.61893 0.29350 0.831 0.189 1240.777 0.02065
0.36559 0.14770 0.47805 0.61968 0.29539 0.900 0.195 1240.806 0.02068
0.36603 0.14788 0.47862 0.62043 0.29727 1.129 0.211 1240.836 0.02070
0.36647 0.14805 0.47920 0.62117 0.29916 1.109 0.210 1240.866 0.02073
0.36691 0.14823 0.47978 0.62192 0.30105 1.121 0.209 1240.896 0.02075
0.36736 0.14841 0.48036 0.62267 0.30293 1.100 0.210 1240.926 0.02078
0.36780 0.14859 0.48093 0.62342 0.30482 1.123 0.211 1240.956 0.02080
0.36824 0.14877 0.48151 0.62417 0.30671 0.607 0.167 1240.986 0.02082
0.36868 0.14895 0.48209 0.62491 0.30859 1.027 0.202 1241.016 0.02085
0.36912 0.14912 0.48266 0.62566 0.31048 1.324 0.224 1241.045 0.02087
0.36956 0.14930 0.48324 0.62641 0.31237 0.943 0.197 1241.075 0.02090
0.37000 0.14948 0.48382 0.62716 0.31426 1.120 0.209 1241.105 0.02092
0.37045 0.14966 0.48440 0.62791 0.31614 1.134 0.211 1241.135 0.02095
0.37089 0.14984 0.48497 0.62866 0.31803 1.235 0.217 1241.165 0.02097
0.37133 0.15002 0.48555 0.62940 0.31992 1.101 0.207 1241.195 0.02100
0.37177 0.15019 0.48613 0.63015 0.32181 0.896 0.192 1241.225 0.02102
0.37221 0.15037 0.48670 0.63090 0.32369 0.893 0.192 1241.255 0.02105
0.37265 0.15055 0.48728 0.63165 0.32558 0.850 0.188 1241.285 0.02107
0.37309 0.15073 0.48786 0.63240 0.32747 1.051 0.203 1241.314 0.02109
0.37354 0.15091 0.48844 0.63315 0.32936 1.000 0.202 1241.344 0.02112
0.37398 0.15109 0.48901 0.63389 0.33125 0.978 0.199 1241.374 0.02114
0.37442 0.15126 0.48959 0.63464 0.33313 1.116 0.210 1241.404 0.02117
0.37486 0.15144 0.49017 0.63539 0.33502 1.037 0.205 1241.434 0.02119
0.37530 0.15162 0.49075 0.63614 0.33691 0.819 0.188 1241.464 0.02122
0.37574 0.15180 0.49132 0.63689 0.33880 0.931 0.203 1241.494 0.02124
0.37619 0.15198 0.49190 0.63764 0.34069 1.085 0.215 1241.524 0.02127
0.37663 0.15216 0.49248 0.63838 0.34258 1.002 0.215 1241.553 0.02129
0.37707 0.15233 0.49306 0.63913 0.34446 1.048 0.211 1241.583 0.02132
0.37751 0.15251 0.49363 0.63988 0.34635 1.054 0.206 1241.613 0.02134
0.37795 0.15269 0.49421 0.64063 0.34824 0.793 0.186 1241.643 0.02137
0.37839 0.15287 0.49479 0.64138 0.35013 1.031 0.205 1241.673 0.02139
0.37884 0.15305 0.49537 0.64213 0.35202 1.272 0.221 1241.703 0.02141
0.37928 0.15323 0.49594 0.64288 0.35391 0.794 0.185 1241.733 0.02144
0.37972 0.15341 0.49652 0.64363 0.35580 0.934 0.197 1241.763 0.02146
0.38016 0.15358 0.49710 0.64437 0.35769 1.056 0.206 1241.792 0.02149
0.38060 0.15376 0.49768 0.64512 0.35957 0.888 0.193 1241.822 0.02151
0.38104 0.15394 0.49825 0.64587 0.36146 0.818 0.187 1241.852 0.02154
0.38149 0.15412 0.49883 0.64662 0.36335 1.080 0.208 1241.882 0.02156
0.38193 0.15430 0.49941 0.64737 0.36524 0.838 0.189 1241.912 0.02159
0.38237 0.15448 0.49999 0.64812 0.36713 1.247 0.219 1241.942 0.02161
0.38281 0.15465 0.50057 0.64887 0.36902 0.770 0.183 1241.972 0.02164
0.38325 0.15483 0.50114 0.64962 0.37091 0.838 0.189 1242.002 0.02166
0.38370 0.15501 0.50172 0.65037 0.37280 0.959 0.198 1242.031 0.02168
0.38414 0.15519 0.50230 0.65111 0.37469 1.244 0.219 1242.061 0.02171
0.38458 0.15537 0.50288 0.65186 0.37658 0.886 0.193 1242.091 0.02173
0.38502 0.15555 0.50346 0.65261 0.37847 0.738 0.181 1242.121 0.02176
0.38546 0.15573 0.50403 0.65336 0.38036 1.052 0.205 1242.151 0.02178
0.38591 0.15590 0.50461 0.65411 0.38225 1.053 0.205 1242.181 0.02181
0.38635 0.15608 0.50519 0.65486 0.38414 0.932 0.196 1242.211 0.02183
0.38679 0.15626 0.50577 0.65561 0.38603 0.996 0.202 1242.241 0.02186
0.38723 0.15644 0.50634 0.65636 0.38792 1.287 0.222 1242.271 0.02188
0.38767 0.15662 0.50692 0.65711 0.38981 0.721 0.179 1242.300 0.02191
0.38812 0.15680 0.50750 0.65786 0.39170 1.077 0.207 1242.330 0.02193
0.38856 0.15698 0.50808 0.65861 0.39359 0.976 0.200 1242.360 0.02196
0.38900 0.15715 0.50866 0.65936 0.39548 0.933 0.196 1242.390 0.02198
0.38944 0.15733 0.50924 0.66011 0.39737 0.882 0.192 1242.420 0.02200
0.38988 0.15751 0.50981 0.66085 0.39926 0.905 0.194 1242.450 0.02203
0.39033 0.15769 0.51039 0.66160 0.40115 1.027 0.203 1242.480 0.02205
0.39077 0.15787 0.51097 0.66235 0.40304 0.790 0.184 1242.510 0.02208
0.39121 0.15805 0.51155 0.66310 0.40493 0.858 0.190 1242.539 0.02210
0.39165 0.15823 0.51213 0.66385 0.40682 0.928 0.196 1242.569 0.02213
0.39209 0.15841 0.51270 0.66460 0.40871 0.716 0.178 1242.599 0.02215
0.39254 0.15858 0.51328 0.66535 0.41060 0.905 0.194 1242.629 0.02218
0.39298 0.15876 0.51386 0.66610 0.41249 0.977 0.199 1242.659 0.02220
0.39342 0.15894 0.51444 0.66685 0.41438 0.947 0.197 1242.689 0.02223
0.39386 0.15912 0.51502 0.66760 0.41628 0.761 0.182 1242.719 0.02225
0.39431 0.15930 0.51560 0.66835 0.41817 1.045 0.204 1242.749 0.02227
0.39475 0.15948 0.51617 0.66910 0.42006 0.835 0.187 1242.778 0.02230
0.39519 0.15966 0.51675 0.66985 0.42195 1.188 0.214 1242.808 0.02232
0.39563 0.15983 0.51733 0.67060 0.42384 1.049 0.204 1242.838 0.02235
0.39608 0.16001 0.51791 0.67135 0.42573 1.051 0.204 1242.868 0.02237
0.39652 0.16019 0.51849 0.67210 0.42762 0.958 0.197 1242.898 0.02240
0.39696 0.16037 0.51907 0.67285 0.42951 1.001 0.201 1242.928 0.02242
0.39740 0.16055 0.51964 0.67360 0.43141 1.068 0.206 1242.958 0.02245
0.39784 0.16073 0.52022 0.67435 0.43330 1.194 0.214 1242.988 0.02247
0.39829 0.16091 0.52080 0.67510 0.43519 0.998 0.200 1243.017 0.02250
0.39873 0.16109 0.52138 0.67585 0.43708 0.859 0.189 1243.047 0.02252
0.39917 0.16126 0.52196 0.67660 0.43897 0.974 0.199 1243.077 0.02254
0.39961 0.16144 0.52254 0.67735 0.44087 0.761 0.182 1243.107 0.02257
0.40006 0.16162 0.52312 0.67810 0.44276 0.692 0.175 1243.137 0.02259
0.40050 0.16180 0.52369 0.67885 0.44465 0.765 0.181 1243.167 0.02262
0.40094 0.16198 0.52427 0.67960 0.44654 0.876 0.191 1243.197 0.02264
0.40138 0.16216 0.52485 0.68035 0.44843 0.853 0.189 1243.227 0.02267
0.40183 0.16234 0.52543 0.68110 0.45033 0.788 0.183 1243.257 0.02269
0.40227 0.16252 0.52601 0.68185 0.45222 0.713 0.177 1243.286 0.02272
0.40271 0.16269 0.52659 0.68260 0.45411 1.092 0.207 1243.316 0.02274
0.40315 0.16287 0.52717 0.68335 0.45600 0.784 0.183 1243.346 0.02277
0.40360 0.16305 0.52775 0.68410 0.45790 0.688 0.175 1243.376 0.02279
0.40404 0.16323 0.52832 0.68485 0.45979 0.825 0.187 1243.406 0.02282
0.40448 0.16341 0.52890 0.68560 0.46168 1.115 0.208 1243.436 0.02284
0.40493 0.16359 0.52948 0.68635 0.46357 0.947 0.196 1243.466 0.02286
0.40537 0.16377 0.53006 0.68710 0.46547 0.993 0.199 1243.496 0.02289
0.40581 0.16395 0.53064 0.68785 0.46736 0.807 0.185 1243.525 0.02291
0.40625 0.16413 0.53122 0.68860 0.46925 0.852 0.188 1243.555 0.02294
0.40670 0.16430 0.53180 0.68935 0.47114 1.188 0.213 1243.585 0.02296
0.40714 0.16448 0.53238 0.69010 0.47304 0.832 0.186 1243.615 0.02299
0.40758 0.16466 0.53295 0.69085 0.47493 1.004 0.199 1243.645 0.02301
0.40802 0.16484 0.53353 0.69160 0.47682 1.233 0.214 1243.675 0.02304
0.40847 0.16502 0.53411 0.69235 0.47872 0.802 0.183 1243.705 0.02306
0.40891 0.16520 0.53469 0.69310 0.48061 1.351 0.222 1243.735 0.02309
0.40935 0.16538 0.53527 0.69385 0.48250 1.127 0.208 1243.764 0.02311
0.40980 0.16556 0.53585 0.69461 0.48440 0.903 0.192 1243.794 0.02313
0.41024 0.16574 0.53643 0.69536 0.48629 0.967 0.195 1243.824 0.02316
0.41068 0.16591 0.53701 0.69611 0.48818 0.908 0.190 1243.854 0.02318
0.41112 0.16609 0.53759 0.69686 0.49008 0.848 0.186 1243.884 0.02321
0.41157 0.16627 0.53817 0.69761 0.49197 1.039 0.200 1243.914 0.02323
0.41201 0.16645 0.53875 0.69836 0.49387 0.738 0.176 1243.944 0.02326
0.41245 0.16663 0.53932 0.69911 0.49576 0.966 0.195 1243.974 0.02328
0.41290 0.16681 0.53990 0.69986 0.49765 0.864 0.187 1244.003 0.02331
0.41334 0.16699 0.54048 0.70061 0.49955 0.804 0.182 1244.033 0.02333
0.41378 0.16717 0.54106 0.70136 0.50144 1.033 0.200 1244.063 0.02336
0.41422 0.16735 0.54164 0.70211 0.50334 0.879 0.189 1244.093 0.02338
0.41467 0.16752 0.54222 0.70286 0.50523 1.199 0.212 1244.123 0.02341
0.41511 0.16770 0.54280 0.70361 0.50712 1.118 0.205 1244.153 0.02343
0.41555 0.16788 0.54338 0.70437 0.50902 0.940 0.193 1244.183 0.02345
0.41600 0.16806 0.54396 0.70512 0.51091 0.953 0.195 1244.213 0.02348
0.41644 0.16824 0.54454 0.70587 0.51281 1.219 0.215 1244.243 0.02350
0.41688 0.16842 0.54512 0.70662 0.51470 0.784 0.181 1244.272 0.02353
0.41733 0.16860 0.54570 0.70737 0.51660 1.179 0.211 1244.302 0.02355
0.41777 0.16878 0.54628 0.70812 0.51849 1.106 0.207 1244.332 0.02358
0.41821 0.16896 0.54686 0.70887 0.52039 1.161 0.210 1244.362 0.02360
0.41866 0.16914 0.54743 0.70962 0.52228 1.124 0.206 1244.392 0.02363
0.41910 0.16931 0.54801 0.71037 0.52418 0.834 0.185 1244.422 0.02365
0.41954 0.16949 0.54859 0.71112 0.52607 0.876 0.189 1244.452 0.02368
0.41998 0.16967 0.54917 0.71188 0.52797 0.872 0.187 1244.482 0.02370
0.42043 0.16985 0.54975 0.71263 0.52986 0.934 0.192 1244.511 0.02372
0.42087 0.17003 0.55033 0.71338 0.53176 0.884 0.189 1244.541 0.02375
0.42131 0.17021 0.55091 0.71413 0.53365 0.751 0.176 1244.571 0.02377
0.42176 0.17039 0.55149 0.71488 0.53555 1.269 0.215 1244.601 0.02380
0.42220 0.17057 0.55207 0.71563 0.53744 0.928 0.192 1244.631 0.02382
0.42264 0.17075 0.55265 0.71638 0.53934 0.984 0.197 1244.661 0.02385
0.42309 0.17093 0.55323 0.71714 0.54123 0.825 0.185 1244.691 0.02387
