x y z dist_scaled dist_frac flux_norm wavelength redshift
0.13850 -0.16014 0.45581 0.50258 0.00000 0.985 1236.115 0.01682
0.13871 -0.16038 0.45648 0.50333 0.00188 0.830 1236.145 0.01684
0.13891 -0.16062 0.45716 0.50407 0.00375 0.903 1236.175 0.01687
0.13912 -0.16085 0.45783 0.50481 0.00563 1.231 1236.205 0.01689
0.13932 -0.16109 0.45851 0.50556 0.00751 1.191 1236.235 0.01692
0.13953 -0.16133 0.45918 0.50630 0.00938 1.080 1236.265 0.01694
0.13973 -0.16156 0.45986 0.50705 0.01126 1.089 1236.295 0.01697
0.13994 -0.16180 0.46053 0.50779 0.01313 0.874 1236.325 0.01699
0.14014 -0.16204 0.46120 0.50853 0.01501 0.992 1236.355 0.01701
0.14035 -0.16227 0.46188 0.50928 0.01689 1.001 1236.384 0.01704
0.14055 -0.16251 0.46255 0.51002 0.01876 0.971 1236.414 0.01706
0.14076 -0.16275 0.46323 0.51077 0.02064 0.932 1236.444 0.01709
0.14096 -0.16299 0.46390 0.51151 0.02252 0.931 1236.474 0.01711
0.14117 -0.16322 0.46458 0.51225 0.02440 1.100 1236.504 0.01714
0.14137 -0.16346 0.46525 0.51300 0.02627 0.991 1236.534 0.01716
0.14158 -0.16370 0.46593 0.51374 0.02815 1.070 1236.564 0.01719
0.14178 -0.16393 0.46660 0.51449 0.03003 0.882 1236.594 0.01721
0.14199 -0.16417 0.46728 0.51523 0.03190 1.207 1236.623 0.01724
0.14219 -0.16441 0.46795 0.51597 0.03378 0.968 1236.653 0.01726
0.14240 -0.16465 0.46863 0.51672 0.03566 0.978 1236.683 0.01729
0.14260 -0.16488 0.46930 0.51746 0.03754 0.918 1236.713 0.01731
0.14281 -0.16512 0.46998 0.51821 0.03941 1.007 1236.743 0.01733
0.14301 -0.16536 0.47065 0.51895 0.04129 0.998 1236.773 0.01736
0.14322 -0.16559 0.47133 0.51970 0.04317 0.977 1236.803 0.01738
0.14342 -0.16583 0.47200 0.52044 0.04505 0.917 1236.833 0.01741
0.14363 -0.16607 0.47268 0.52118 0.04692 1.064 1236.862 0.01743
0.14383 -0.16631 0.47335 0.52193 0.04880 0.796 1236.892 0.01746
0.14404 -0.16654 0.47403 0.52267 0.05068 1.023 1236.922 0.01748
0.14424 -0.16678 0.47470 0.52342 0.05256 0.944 1236.952 0.01751
0.14445 -0.16702 0.47538 0.52416 0.05444 0.923 1236.982 0.01753
0.14465 -0.16725 0.47605 0.52491 0.05631 0.874 1237.012 0.01756
0.14486 -0.16749 0.47673 0.52565 0.05819 0.933 1237.042 0.01758
0.14506 -0.16773 0.47740 0.52640 0.06007 0.972 1237.072 0.01760
0.14527 -0.16797 0.47808 0.52714 0.06195 0.795 1237.101 0.01763
0.14548 -0.16820 0.47876 0.52788 0.06383 0.863 1237.131 0.01765
0.14568 -0.16844 0.47943 0.52863 0.06571 1.049 1237.161 0.01768
0.14589 -0.16868 0.48011 0.52937 0.06758 0.950 1237.191 0.01770
0.14609 -0.16892 0.48078 0.53012 0.06946 0.901 1237.221 0.01773
0.14630 -0.16915 0.48146 0.53086 0.07134 0.910 1237.251 0.01775
0.14650 -0.16939 0.48213 0.53161 0.07322 0.978 1237.281 0.01778
0.14671 -0.16963 0.48281 0.53235 0.07510 1.203 1237.311 0.01780
0.14691 -0.16986 0.48348 0.53310 0.07698 1.037 1237.341 0.01783
0.14712 -0.17010 0.48416 0.53384 0.07886 0.997 1237.370 0.01785
0.14732 -0.17034 0.48483 0.53459 0.08074 0.830 1237.400 0.01788
0.14753 -0.17058 0.48551 0.53533 0.08261 1.025 1237.430 0.01790
0.14773 -0.17081 0.48619 0.53608 0.08449 1.014 1237.460 0.01792
0.14794 -0.17105 0.48686 0.53682 0.08637 1.219 1237.490 0.01795
0.14814 -0.17129 0.48754 0.53757 0.08825 0.867 1237.520 0.01797
0.14835 -0.17153 0.48821 0.53831 0.09013 1.052 1237.550 0.01800
0.14855 -0.17176 0.48889 0.53906 0.09201 1.187 1237.580 0.01802
0.14876 -0.17200 0.48956 0.53980 0.09389 0.972 1237.609 0.01805
0.14896 -0.17224 0.49024 0.54055 0.09577 0.944 1237.639 0.01807
0.14917 -0.17248 0.49092 0.54129 0.09765 1.178 1237.669 0.01810
0.14938 -0.17271 0.49159 0.54204 0.09953 1.071 1237.699 0.01812
0.14958 -0.17295 0.49227 0.54278 0.10141 0.855 1237.729 0.01815
0.14979 -0.17319 0.49294 0.54353 0.10329 0.912 1237.759 0.01817
0.14999 -0.17343 0.49362 0.54427 0.10517 0.922 1237.789 0.01819
0.15020 -0.17366 0.49429 0.54502 0.10705 1.166 1237.819 0.01822
0.15040 -0.17390 0.49497 0.54576 0.10893 1.001 1237.848 0.01824
0.15061 -0.17414 0.49565 0.54651 0.11081 0.982 1237.878 0.01827
0.15081 -0.17438 0.49632 0.54725 0.11269 0.962 1237.908 0.01829
0.15102 -0.17461 0.49700 0.54800 0.11457 1.156 1237.938 0.01832
0.15122 -0.17485 0.49767 0.54874 0.11645 0.894 1237.968 0.01834
0.15143 -0.17509 0.49835 0.54949 0.11833 1.039 1237.998 0.01837
0.15163 -0.17533 0.49903 0.55024 0.12021 1.028 1238.028 0.01839
0.15184 -0.17556 0.49970 0.55098 0.12209 1.066 1238.058 0.01842
0.15205 -0.17580 0.50038 0.55173 0.12397 1.018 1238.087 0.01844
0.15225 -0.17604 0.50105 0.55247 0.12585 0.863 1238.117 0.01847
0.15246 -0.17628 0.50173 0.55322 0.12773 0.940 1238.147 0.01849
0.15266 -0.17651 0.50241 0.55396 0.12961 1.017 1238.177 0.01851
0.15287 -0.17675 0.50308 0.55471 0.13149 0.910 1238.207 0.01854
0.15307 -0.17699 0.50376 0.55545 0.13338 1.171 1238.237 0.01856
0.15328 -0.17723 0.50444 0.55620 0.13526 1.064 1238.267 0.01859
0.15348 -0.17746 0.50511 0.55695 0.13714 0.910 1238.297 0.01861
0.15369 -0.17770 0.50579 0.55769 0.13902 0.957 1238.327 0.01864
0.15390 -0.17794 0.50646 0.55844 0.14090 1.015 1238.356 0.01866
0.15410 -0.17818 0.50714 0.55918 0.14278 0.976 1238.386 0.01869
0.15431 -0.17841 0.50782 0.55993 0.14466 0.888 1238.416 0.01871
0.15451 -0.17865 0.50849 0.56067 0.14654 0.947 1238.446 0.01874
0.15472 -0.17889 0.50917 0.56142 0.14843 0.985 1238.476 0.01876
0.15492 -0.17913 0.50985 0.56217 0.15031 1.050 1238.506 0.01878
0.15513 -0.17936 0.51052 0.56291 0.15219 1.155 1238.536 0.01881
0.15533 -0.17960 0.51120 0.56366 0.15407 1.001 1238.566 0.01883
0.15554 -0.17984 0.51188 0.56440 0.15595 1.049 1238.595 0.01886
0.15574 -0.18008 0.51255 0.56515 0.15783 1.174 1238.625 0.01888
0.15595 -0.18032 0.51323 0.56590 0.15972 1.038 1238.655 0.01891
0.15616 -0.18055 0.51391 0.56664 0.16160 1.059 1238.685 0.01893
0.15636 -0.18079 0.51458 0.56739 0.16348 1.028 1238.715 0.01896
0.15657 -0.18103 0.51526 0.56813 0.16536 0.961 1238.745 0.01898
0.15677 -0.18127 0.51594 0.56888 0.16724 1.209 1238.775 0.01901
0.15698 -0.18150 0.51661 0.56963 0.16913 1.028 1238.805 0.01903
0.15718 -0.18174 0.51729 0.57037 0.17101 0.860 1238.834 0.01905
0.15739 -0.18198 0.51797 0.57112 0.17289 0.920 1238.864 0.01908
0.15760 -0.18222 0.51864 0.57186 0.17477 0.955 1238.894 0.01910
0.15780 -0.18246 0.51932 0.57261 0.17665 0.818 1238.924 0.01913
0.15801 -0.18269 0.52000 0.57336 0.17854 0.975 1238.954 0.01915
0.15821 -0.18293 0.52067 0.57410 0.18042 0.928 1238.984 0.01918
0.15842 -0.18317 0.52135 0.57485 0.18230 0.800 1239.014 0.01920
0.15862 -0.18341 0.52203 0.57560 0.18419 1.096 1239.044 0.01923
0.15883 -0.18364 0.52270 0.57634 0.18607 0.861 1239.073 0.01925
0.15904 -0.18388 0.52338 0.57709 0.18795 0.942 1239.103 0.01928
0.15924 -0.18412 0.52406 0.57784 0.18983 0.846 1239.133 0.01930
0.15945 -0.18436 0.52473 0.57858 0.19172 0.949 1239.163 0.01933
0.15965 -0.18460 0.52541 0.57933 0.19360 0.919 1239.193 0.01935
0.15986 -0.18483 0.52609 0.58007 0.19548 0.994 1239.223 0.01937
0.16006 -0.18507 0.52677 0.58082 0.19737 0.994 1239.253 0.01940
0.16027 -0.18531 0.52744 0.58157 0.19925 0.861 1239.283 0.01942
0.16048 -0.18555 0.52812 0.58231 0.20113 0.936 1239.313 0.01945
0.16068 -0.18579 0.52880 0.58306 0.20302 0.870 1239.342 0.01947
0.16089 -0.18602 0.52947 0.58381 0.20490 1.012 1239.372 0.01950
0.16109 -0.18626 0.53015 0.58455 0.20678 1.059 1239.402 0.01952
0.16130 -0.18650 0.53083 0.58530 0.20867 1.086 1239.432 0.01955
0.16150 -0.18674 0.53151 0.58605 0.21055 0.878 1239.462 0.01957
0.16171 -0.18697 0.53218 0.58679 0.21243 1.000 1239.492 0.01960
0.16192 -0.18721 0.53286 0.58754 0.21432 0.896 1239.522 0.01962
0.16212 -0.18745 0.53354 0.58829 0.21620 1.084 1239.552 0.01964
0.16233 -0.18769 0.53421 0.58904 0.21809 1.112 1239.581 0.01967
0.16253 -0.18793 0.53489 0.58978 0.21997 0.893 1239.611 0.01969
0.16274 -0.18816 0.53557 0.59053 0.22185 0.950 1239.641 0.01972
0.16294 -0.18840 0.53625 0.59128 0.22374 1.005 1239.671 0.01974
0.16315 -0.18864 0.53692 0.59202 0.22562 0.797 1239.701 0.01977
0.16336 -0.18888 0.53760 0.59277 0.22751 0.731 1239.731 0.01979
0.16356 -0.18912 0.53828 0.59352 0.22939 0.844 1239.761 0.01982
0.16377 -0.18935 0.53896 0.59426 0.23128 0.853 1239.791 0.01984
0.16397 -0.18959 0.53963 0.59501 0.23316 0.759 1239.820 0.01987
0.16418 -0.18983 0.54031 0.59576 0.23504 0.835 1239.850 0.01989
0.16439 -0.19007 0.54099 0.59650 0.23693 0.711 1239.880 0.01992
0.16459 -0.19031 0.54167 0.59725 0.23881 0.710 1239.910 0.01994
0.16480 -0.19054 0.54234 0.59800 0.24070 0.767 1239.940 0.01996
0.16500 -0.19078 0.54302 0.59875 0.24258 0.804 1239.970 0.01999
0.16521 -0.19102 0.54370 0.59949 0.24447 0.850 1240.000 0.02001
0.16542 -0.19126 0.54438 0.60024 0.24635 0.982 1240.030 0.02004
0.16562 -0.19150 0.54505 0.60099 0.24824 0.982 1240.059 0.02006
0.16583 -0.19174 0.54573 0.60174 0.25012 0.897 1240.089 0.02009
0.16603 -0.19197 0.54641 0.60248 0.25201 1.009 1240.119 0.02011
0.16624 -0.19221 0.54709 0.60323 0.25389 0.869 1240.149 0.02014
0.16645 -0.19245 0.54777 0.60398 0.25578 0.944 1240.179 0.02016
0.16665 -0.19269 0.54844 0.60472 0.25766 0.981 1240.209 0.02019
0.16686 -0.19293 0.54912 0.60547 0.25955 0.850 1240.239 0.02021
0.16706 -0.19316 0.54980 0.60622 0.26144 0.850 1240.269 0.02023
0.16727 -0.19340 0.55048 0.60697 0.26332 0.943 1240.299 0.02026
0.16747 -0.19364 0.55116 0.60771 0.26521 1.109 1240.328 0.02028
0.16768 -0.19388 0.55183 0.60846 0.26709 0.838 1240.358 0.02031
0.16789 -0.19412 0.55251 0.60921 0.26898 0.977 1240.388 0.02033
0.16809 -0.19436 0.55319 0.60996 0.27086 0.847 1240.418 0.02036
0.16830 -0.19459 0.55387 0.61070 0.27275 0.994 1240.448 0.02038
0.16850 -0.19483 0.55455 0.61145 0.27464 1.124 1240.478 0.02041
0.16871 -0.19507 0.55522 0.61220 0.27652 0.938 1240.508 0.02043
0.16892 -0.19531 0.55590 0.61295 0.27841 0.939 1240.538 0.02046
0.16912 -0.19555 0.55658 0.61370 0.28029 1.088 1240.567 0.02048
0.16933 -0.19578 0.55726 0.61444 0.28218 1.032 1240.597 0.02050
0.16954 -0.19602 0.55794 0.61519 0.28407 1.096 1240.627 0.02053
0.16974 -0.19626 0.55861 0.61594 0.28595 0.993 1240.657 0.02055
0.16995 -0.19650 0.55929 0.61669 0.28784 0.900 1240.687 0.02058
0.17015 -0.19674 0.55997 0.61743 0.28973 1.066 1240.717 0.02060
0.17036 -0.19698 0.56065 0.61818 0.29161 0.981 1240.747 0.02063
0.17057 -0.19721 0.56133 0.61893 0.29350 0.842 1240.777 0.02065
0.17077 -0.19745 0.56201 0.61968 0.29539 1.053 1240.806 0.02068
0.17098 -0.19769 0.56268 0.62043 0.29727 1.053 1240.836 0.02070
0.17118 -0.19793 0.56336 0.62117 0.29916 1.081 1240.866 0.02073
0.17139 -0.19817 0.56404 0.62192 0.30105 0.762 1240.896 0.02075
0.17160 -0.19841 0.56472 0.62267 0.30293 1.136 1240.926 0.02078
0.17180 -0.19864 0.56540 0.62342 0.30482 0.977 1240.956 0.02080
0.17201 -0.19888 0.56608 0.62417 0.30671 0.963 1240.986 0.02082
0.17221 -0.19912 0.56675 0.62491 0.30859 0.923 1241.016 0.02085
0.17242 -0.19936 0.56743 0.62566 0.31048 0.936 1241.045 0.02087
0.17263 -0.19960 0.56811 0.62641 0.31237 0.799 1241.075 0.02090
0.17283 -0.19984 0.56879 0.62716 0.31426 1.145 1241.105 0.02092
0.17304 -0.20007 0.56947 0.62791 0.31614 0.930 1241.135 0.02095
0.17325 -0.20031 0.57015 0.62866 0.31803 1.127 1241.165 0.02097
0.17345 -0.20055 0.57083 0.62940 0.31992 1.146 1241.195 0.02100
0.17366 -0.20079 0.57150 0.63015 0.32181 1.129 1241.225 0.02102
0.17386 -0.20103 0.57218 0.63090 0.32369 0.949 1241.255 0.02105
0.17407 -0.20127 0.57286 0.63165 0.32558 0.927 1241.285 0.02107
0.17428 -0.20151 0.57354 0.63240 0.32747 0.892 1241.314 0.02109
0.17448 -0.20174 0.57422 0.63315 0.32936 0.941 1241.344 0.02112
0.17469 -0.20198 0.57490 0.63389 0.33125 1.107 1241.374 0.02114
0.17490 -0.20222 0.57558 0.63464 0.33313 0.969 1241.404 0.02117
0.17510 -0.20246 0.57626 0.63539 0.33502 0.886 1241.434 0.02119
0.17531 -0.20270 0.57693 0.63614 0.33691 0.950 1241.464 0.02122
0.17551 -0.20294 0.57761 0.63689 0.33880 0.904 1241.494 0.02124
0.17572 -0.20317 0.57829 0.63764 0.34069 0.848 1241.524 0.02127
0.17593 -0.20341 0.57897 0.63838 0.34258 1.212 1241.553 0.02129
0.17613 -0.20365 0.57965 0.63913 0.34446 1.057 1241.583 0.02132
0.17634 -0.20389 0.58033 0.63988 0.34635 1.011 1241.613 0.02134
0.17655 -0.20413 0.58101 0.64063 0.34824 0.910 1241.643 0.02137
0.17675 -0.20437 0.58169 0.64138 0.35013 1.074 1241.673 0.02139
0.17696 -0.20461 0.58237 0.64213 0.35202 1.083 1241.703 0.02141
0.17717 -0.20484 0.58305 0.64288 0.35391 0.964 1241.733 0.02144
0.17737 -0.20508 0.58372 0.64363 0.35580 1.028 1241.763 0.02146
0.17758 -0.20532 0.58440 0.64437 0.35769 0.982 1241.792 0.02149
0.17778 -0.20556 0.58508 0.64512 0.35957 1.018 1241.822 0.02151
0.17799 -0.20580 0.58576 0.64587 0.36146 1.036 1241.852 0.02154
0.17820 -0.20604 0.58644 0.64662 0.36335 1.025 1241.882 0.02156
0.17840 -0.20628 0.58712 0.64737 0.36524 0.906 1241.912 0.02159
0.17861 -0.20651 0.58780 0.64812 0.36713 0.943 1241.942 0.02161
0.17882 -0.20675 0.58848 0.64887 0.36902 0.905 1241.972 0.02164
0.17902 -0.20699 0.58916 0.64962 0.37091 0.959 1242.002 0.02166
0.17923 -0.20723 0.58984 0.65037 0.37280 1.014 1242.031 0.02168
0.17944 -0.20747 0.59052 0.65111 0.37469 1.049 1242.061 0.02171
0.17964 -0.20771 0.59120 0.65186 0.37658 1.039 1242.091 0.02173
0.17985 -0.20795 0.59188 0.65261 0.37847 0.939 1242.121 0.02176
0.18005 -0.20819 0.59255 0.65336 0.38036 1.047 1242.151 0.02178
0.18026 -0.20842 0.59323 0.65411 0.38225 0.911 1242.181 0.02181
0.18047 -0.20866 0.59391 0.65486 0.38414 0.920 1242.211 0.02183
0.18067 -0.20890 0.59459 0.65561 0.38603 1.055 1242.241 0.02186
0.18088 -0.20914 0.59527 0.65636 0.38792 1.009 1242.271 0.02188
0.18109 -0.20938 0.59595 0.65711 0.38981 0.928 1242.300 0.02191
0.18129 -0.20962 0.59663 0.65786 0.39170 0.973 1242.330 0.02193
0.18150 -0.20986 0.59731 0.65861 0.39359 0.962 1242.360 0.02196
0.18171 -0.21010 0.59799 0.65936 0.39548 0.817 1242.390 0.02198
0.18191 -0.21033 0.59867 0.66011 0.39737 1.050 1242.420 0.02200
0.18212 -0.21057 0.59935 0.66085 0.39926 0.933 1242.450 0.02203
0.18233 -0.21081 0.60003 0.66160 0.40115 0.932 1242.480 0.02205
0.18253 -0.21105 0.60071 0.66235 0.40304 0.994 1242.510 0.02208
0.18274 -0.21129 0.60139 0.66310 0.40493 0.896 1242.539 0.02210
0.18295 -0.21153 0.60207 0.66385 0.40682 1.020 1242.569 0.02213
0.18315 -0.21177 0.60275 0.66460 0.40871 0.741 1242.599 0.02215
0.18336 -0.21201 0.60343 0.66535 0.41060 0.929 1242.629 0.02218
0.18357 -0.21224 0.60411 0.66610 0.41249 1.080 1242.659 0.02220
0.18377 -0.21248 0.60479 0.66685 0.41438 1.036 1242.689 0.02223
0.18398 -0.21272 0.60547 0.66760 0.41628 1.000 1242.719 0.02225
0.18419 -0.21296 0.60615 0.66835 0.41817 1.008 1242.749 0.02227
0.18439 -0.21320 0.60683 0.66910 0.42006 1.034 1242.778 0.02230
0.18460 -0.21344 0.60751 0.66985 0.42195 1.015 1242.808 0.02232
0.18480 -0.21368 0.60819 0.67060 0.42384 0.880 1242.838 0.02235
0.18501 -0.21392 0.60887 0.67135 0.42573 1.165 1242.868 0.02237
0.18522 -0.21416 0.60955 0.67210 0.42762 0.764 1242.898 0.02240
0.18542 -0.21439 0.61023 0.67285 0.42951 1.111 1242.928 0.02242
0.18563 -0.21463 0.61091 0.67360 0.43141 0.879 1242.958 0.02245
0.18584 -0.21487 0.61159 0.67435 0.43330 0.825 1242.988 0.02247
0.18604 -0.21511 0.61227 0.67510 0.43519 1.047 1243.017 0.02250
0.18625 -0.21535 0.61295 0.67585 0.43708 0.967 1243.047 0.02252
0.18646 -0.21559 0.61363 0.67660 0.43897 0.887 1243.077 0.02254
0.18666 -0.21583 0.61431 0.67735 0.44087 0.904 1243.107 0.02257
0.18687 -0.21607 0.61499 0.67810 0.44276 0.922 1243.137 0.02259
0.18708 -0.21631 0.61567 0.67885 0.44465 0.975 1243.167 0.02262
0.18728 -0.21655 0.61635 0.67960 0.44654 0.878 1243.197 0.02264
0.18749 -0.21678 0.61703 0.68035 0.44843 1.054 1243.227 0.02267
0.18770 -0.21702 0.61771 0.68110 0.45033 0.894 1243.257 0.02269
0.18790 -0.21726 0.61839 0.68185 0.45222 0.903 1243.286 0.02272
0.18811 -0.21750 0.61907 0.68260 0.45411 1.114 1243.316 0.02274
0.18832 -0.21774 0.61975 0.68335 0.45600 0.822 1243.346 0.02277
0.18853 -0.21798 0.62043 0.68410 0.45790 0.866 1243.376 0.02279
0.18873 -0.21822 0.62111 0.68485 0.45979 1.017 1243.406 0.02282
0.18894 -0.21846 0.62179 0.68560 0.46168 0.920 1243.436 0.02284
0.18915 -0.21870 0.62247 0.68635 0.46357 0.875 1243.466 0.02286
0.18935 -0.21894 0.62315 0.68710 0.46547 0.901 1243.496 0.02289
0.18956 -0.21918 0.62383 0.68785 0.46736 0.981 1243.525 0.02291
0.18977 -0.21941 0.62451 0.68860 0.46925 0.672 1243.555 0.02294
0.18997 -0.21965 0.62519 0.68935 0.47114 0.936 1243.585 0.02296
0.19018 -0.21989 0.62588 0.69010 0.47304 0.936 1243.615 0.02299
0.19039 -0.22013 0.62656 0.69085 0.47493 1.067 1243.645 0.02301
0.19059 -0.22037 0.62724 0.69160 0.47682 1.023 1243.675 0.02304
0.19080 -0.22061 0.62792 0.69235 0.47872 0.951 1243.705 0.02306
0.19101 -0.22085 0.62860 0.69310 0.48061 0.925 1243.735 0.02309
0.19121 -0.22109 0.62928 0.69385 0.48250 0.925 1243.764 0.02311
0.19142 -0.22133 0.62996 0.69461 0.48440 1.004 1243.794 0.02313
0.19163 -0.22157 0.63064 0.69536 0.48629 1.083 1243.824 0.02316
0.19183 -0.22181 0.63132 0.69611 0.48818 1.039 1243.854 0.02318
0.19204 -0.22204 0.63200 0.69686 0.49008 0.801 1243.884 0.02321
0.19225 -0.22228 0.63268 0.69761 0.49197 1.048 1243.914 0.02323
0.19245 -0.22252 0.63336 0.69836 0.49387 0.986 1243.944 0.02326
0.19266 -0.22276 0.63404 0.69911 0.49576 0.915 1243.974 0.02328
0.19287 -0.22300 0.63473 0.69986 0.49765 0.968 1244.003 0.02331
0.19308 -0.22324 0.63541 0.70061 0.49955 0.994 1244.033 0.02333
0.19328 -0.22348 0.63609 0.70136 0.50144 0.823 1244.063 0.02336
0.19349 -0.22372 0.63677 0.70211 0.50334 0.895 1244.093 0.02338
0.19370 -0.22396 0.63745 0.70286 0.50523 0.966 1244.123 0.02341
0.19390 -0.22420 0.63813 0.70361 0.50712 0.854 1244.153 0.02343
0.19411 -0.22444 0.63881 0.70437 0.50902 0.922 1244.183 0.02345
0.19432 -0.22468 0.63949 0.70512 0.51091 0.790 1244.213 0.02348
0.19452 -0.22492 0.64017 0.70587 0.51281 0.811 1244.243 0.02350
0.19473 -0.22516 0.64085 0.70662 0.51470 0.656 1244.272 0.02353
0.19494 -0.22539 0.64154 0.70737 0.51660 0.671 1244.302 0.02355
0.19514 -0.22563 0.64222 0.70812 0.51849 0.555 1244.332 0.02358
0.19535 -0.22587 0.64290 0.70887 0.52039 0.726 1244.362 0.02360
0.19556 -0.22611 0.64358 0.70962 0.52228 0.558 1244.392 0.02363
0.19577 -0.22635 0.64426 0.71037 0.52418 0.577 1244.422 0.02365
0.19597 -0.22659 0.64494 0.71112 0.52607 0.720 1244.452 0.02368
0.19618 -0.22683 0.64562 0.71188 0.52797 0.966 1244.482 0.02370
0.19639 -0.22707 0.64630 0.71263 0.52986 0.716 1244.511 0.02372
0.19659 -0.22731 0.64699 0.71338 0.53176 0.928 1244.541 0.02375
0.19680 -0.22755 0.64767 0.71413 0.53365 0.819 1244.571 0.02377
0.19701 -0.22779 0.64835 0.71488 0.53555 1.110 1244.601 0.02380
0.19722 -0.22803 0.64903 0.71563 0.53744 1.113 1244.631 0.02382
0.19742 -0.22827 0.64971 0.71638 0.53934 0.980 1244.661 0.02385
0.19763 -0.22851 0.65039 0.71714 0.54123 1.002 1244.691 0.02387
0.19784 -0.22875 0.65107 0.71789 0.54313 0.956 1244.721 0.02390
0.19804 -0.22899 0.65176 0.71864 0.54502 0.895 1244.750 0.02392
0.19825 -0.22922 0.65244 0.71939 0.54692 0.947 1244.780 0.02395
0.19846 -0.22946 0.65312 0.72014 0.54882 0.877 1244.810 0.02397
0.19866 -0.22970 0.65380 0.72089 0.55071 0.851 1244.840 0.02400
0.19887 -0.22994 0.65448 0.72164 0.55261 0.894 1244.870 0.02402
0.19908 -0.23018 0.65516 0.72240 0.55450 1.058 1244.900 0.02404
0.19929 -0.23042 0.65585 0.72315 0.55640 0.945 1244.930 0.02407
0.19949 -0.23066 0.65653 0.72390 0.55829 0.936 1244.960 0.02409
0.19970 -0.23090 0.65721 0.72465 0.56019 1.014 1244.989 0.02412
0.19991 -0.23114 0.65789 0.72540 0.56209 0.943 1245.019 0.02414
0.20011 -0.23138 0.65857 0.72615 0.56398 1.149 1245.049 0.02417
0.20032 -0.23162 0.65925 0.72691 0.56588 0.856 1245.079 0.02419
0.20053 -0.23186 0.65994 0.72766 0.56778 0.899 1245.109 0.02422
0.20074 -0.23210 0.66062 0.72841 0.56967 1.193 1245.139 0.02424
0.20094 -0.23234 0.66130 0.72916 0.57157 0.917 1245.169 0.02427
0.20115 -0.23258 0.66198 0.72991 0.57347 0.942 1245.199 0.02429
0.20136 -0.23282 0.66266 0.73066 0.57536 0.889 1245.229 0.02431
0.20157 -0.23306 0.66335 0.73142 0.57726 0.923 1245.258 0.02434
0.20177 -0.23330 0.66403 0.73217 0.57916 0.879 1245.288 0.02436
0.20198 -0.23354 0.66471 0.73292 0.58105 1.111 1245.318 0.02439
0.20219 -0.23378 0.66539 0.73367 0.58295 0.982 1245.348 0.02441
0.20239 -0.23402 0.66607 0.73442 0.58485 0.844 1245.378 0.02444
