x y z dist_scaled dist_frac flux_norm sig_norm wavelength redshift
0.08605 -0.10859 0.48311 0.50258 0.00000 0.781 0.115 1236.115 0.01682
0.08618 -0.10875 0.48382 0.50333 0.00188 0.679 0.109 1236.145 0.01684
0.08631 -0.10891 0.48454 0.50407 0.00375 0.838 0.111 1236.175 0.01687
0.08643 -0.10908 0.48525 0.50481 0.00563 1.008 0.121 1236.205 0.01689
0.08656 -0.10924 0.48597 0.50556 0.00751 0.997 0.120 1236.235 0.01692
0.08669 -0.10940 0.48668 0.50630 0.00938 0.929 0.117 1236.265 0.01694
0.08682 -0.10956 0.48740 0.50705 0.01126 0.783 0.115 1236.295 0.01697
0.08694 -0.10972 0.48811 0.50779 0.01313 0.919 0.115 1236.325 0.01699
0.08707 -0.10988 0.48883 0.50853 0.01501 1.088 0.111 1236.355 0.01701
0.08720 -0.11004 0.48954 0.50928 0.01689 1.033 0.115 1236.384 0.01704
0.08733 -0.11020 0.49026 0.51002 0.01876 1.090 0.118 1236.414 0.01706
0.08745 -0.11036 0.49097 0.51077 0.02064 1.090 0.118 1236.444 0.01709
0.08758 -0.11052 0.49169 0.51151 0.02252 0.921 0.116 1236.474 0.01711
0.08771 -0.11068 0.49240 0.51225 0.02440 1.159 0.128 1236.504 0.01714
0.08784 -0.11084 0.49312 0.51300 0.02627 0.852 0.119 1236.534 0.01716
0.08796 -0.11100 0.49383 0.51374 0.02815 0.807 0.117 1236.564 0.01719
0.08809 -0.11117 0.49455 0.51449 0.03003 1.193 0.117 1236.594 0.01721
0.08822 -0.11133 0.49526 0.51523 0.03190 1.034 0.115 1236.623 0.01724
0.08835 -0.11149 0.49598 0.51597 0.03378 0.955 0.125 1236.653 0.01726
0.08847 -0.11165 0.49669 0.51672 0.03566 0.966 0.119 1236.683 0.01729
0.08860 -0.11181 0.49741 0.51746 0.03754 1.011 0.121 1236.713 0.01731
0.08873 -0.11197 0.49812 0.51821 0.03941 0.966 0.119 1236.743 0.01733
0.08886 -0.11213 0.49884 0.51895 0.04129 1.160 0.122 1236.773 0.01736
0.08898 -0.11229 0.49956 0.51970 0.04317 1.013 0.114 1236.803 0.01738
0.08911 -0.11245 0.50027 0.52044 0.04505 1.034 0.123 1236.833 0.01741
0.08924 -0.11261 0.50099 0.52118 0.04692 0.944 0.118 1236.862 0.01743
0.08937 -0.11277 0.50170 0.52193 0.04880 0.683 0.109 1236.892 0.01746
0.08949 -0.11293 0.50242 0.52267 0.05068 1.025 0.115 1236.922 0.01748
0.08962 -0.11309 0.50313 0.52342 0.05256 0.866 0.113 1236.952 0.01751
0.08975 -0.11326 0.50385 0.52416 0.05444 0.991 0.121 1236.982 0.01753
0.08987 -0.11342 0.50456 0.52491 0.05631 0.888 0.115 1237.012 0.01756
0.09000 -0.11358 0.50528 0.52565 0.05819 1.094 0.119 1237.042 0.01758
0.09013 -0.11374 0.50600 0.52640 0.06007 0.821 0.118 1237.072 0.01760
0.09026 -0.11390 0.50671 0.52714 0.06195 0.947 0.118 1237.101 0.01763
0.09038 -0.11406 0.50743 0.52788 0.06383 0.959 0.119 1237.131 0.01765
0.09051 -0.11422 0.50814 0.52863 0.06571 0.993 0.114 1237.161 0.01768
0.09064 -0.11438 0.50886 0.52937 0.06758 1.084 0.118 1237.191 0.01770
0.09077 -0.11454 0.50958 0.53012 0.06946 1.164 0.122 1237.221 0.01773
0.09089 -0.11470 0.51029 0.53086 0.07134 0.924 0.116 1237.251 0.01775
0.09102 -0.11486 0.51101 0.53161 0.07322 1.038 0.123 1237.281 0.01778
0.09115 -0.11503 0.51172 0.53235 0.07510 1.016 0.122 1237.311 0.01780
0.09128 -0.11519 0.51244 0.53310 0.07698 0.958 0.119 1237.341 0.01783
0.09141 -0.11535 0.51315 0.53384 0.07886 1.015 0.115 1237.370 0.01785
0.09153 -0.11551 0.51387 0.53459 0.08074 1.244 0.120 1237.400 0.01788
0.09166 -0.11567 0.51459 0.53533 0.08261 0.821 0.118 1237.430 0.01790
0.09179 -0.11583 0.51530 0.53608 0.08449 1.040 0.116 1237.460 0.01792
0.09192 -0.11599 0.51602 0.53682 0.08637 0.983 0.120 1237.490 0.01795
0.09204 -0.11615 0.51674 0.53757 0.08825 0.995 0.120 1237.520 0.01797
0.09217 -0.11631 0.51745 0.53831 0.09013 1.020 0.122 1237.550 0.01800
0.09230 -0.11647 0.51817 0.53906 0.09201 0.974 0.127 1237.580 0.01802
0.09243 -0.11664 0.51888 0.53980 0.09389 0.986 0.113 1237.609 0.01805
0.09255 -0.11680 0.51960 0.54055 0.09577 1.078 0.112 1237.639 0.01807
0.09268 -0.11696 0.52032 0.54129 0.09765 1.011 0.121 1237.669 0.01810
0.09281 -0.11712 0.52103 0.54204 0.09953 1.011 0.114 1237.699 0.01812
0.09294 -0.11728 0.52175 0.54278 0.10141 0.851 0.112 1237.729 0.01815
0.09306 -0.11744 0.52246 0.54353 0.10329 0.863 0.113 1237.759 0.01817
0.09319 -0.11760 0.52318 0.54427 0.10517 1.081 0.119 1237.789 0.01819
0.09332 -0.11776 0.52390 0.54502 0.10705 1.047 0.117 1237.819 0.01822
0.09345 -0.11792 0.52461 0.54576 0.10893 0.967 0.112 1237.848 0.01824
0.09357 -0.11808 0.52533 0.54651 0.11081 0.887 0.115 1237.878 0.01827
0.09370 -0.11825 0.52605 0.54725 0.11269 0.979 0.127 1237.908 0.01829
0.09383 -0.11841 0.52676 0.54800 0.11457 0.842 0.120 1237.938 0.01832
0.09396 -0.11857 0.52748 0.54874 0.11645 0.785 0.116 1237.968 0.01834
0.09408 -0.11873 0.52820 0.54949 0.11833 0.972 0.128 1237.998 0.01837
0.09421 -0.11889 0.52891 0.55024 0.12021 0.877 0.122 1238.028 0.01839
0.09434 -0.11905 0.52963 0.55098 0.12209 0.803 0.118 1238.058 0.01842
0.09447 -0.11921 0.53035 0.55173 0.12397 1.004 0.122 1238.087 0.01844
0.09459 -0.11937 0.53106 0.55247 0.12585 0.850 0.121 1238.117 0.01847
0.09472 -0.11953 0.53178 0.55322 0.12773 1.013 0.122 1238.147 0.01849
0.09485 -0.11970 0.53250 0.55396 0.12961 0.906 0.117 1238.177 0.01851
0.09498 -0.11986 0.53321 0.55471 0.13149 1.018 0.116 1238.207 0.01854
0.09511 -0.12002 0.53393 0.55545 0.13338 1.039 0.124 1238.237 0.01856
0.09523 -0.12018 0.53465 0.55620 0.13526 1.013 0.123 1238.267 0.01859
0.09536 -0.12034 0.53536 0.55695 0.13714 1.238 0.120 1238.297 0.01861
0.09549 -0.12050 0.53608 0.55769 0.13902 0.924 0.125 1238.327 0.01864
0.09562 -0.12066 0.53680 0.55844 0.14090 0.973 0.128 1238.356 0.01866
0.09574 -0.12082 0.53751 0.55918 0.14278 0.898 0.124 1238.386 0.01869
0.09587 -0.12098 0.53823 0.55993 0.14466 1.023 0.116 1238.416 0.01871
0.09600 -0.12115 0.53895 0.56067 0.14654 1.015 0.116 1238.446 0.01874
0.09613 -0.12131 0.53966 0.56142 0.14843 0.995 0.114 1238.476 0.01876
0.09625 -0.12147 0.54038 0.56217 0.15031 1.081 0.127 1238.506 0.01878
0.09638 -0.12163 0.54110 0.56291 0.15219 1.061 0.118 1238.536 0.01881
0.09651 -0.12179 0.54182 0.56366 0.15407 0.922 0.118 1238.566 0.01883
0.09664 -0.12195 0.54253 0.56440 0.15595 0.904 0.124 1238.595 0.01886
0.09677 -0.12211 0.54325 0.56515 0.15783 0.912 0.124 1238.625 0.01888
0.09689 -0.12227 0.54397 0.56590 0.15972 1.127 0.121 1238.655 0.01891
0.09702 -0.12243 0.54468 0.56664 0.16160 1.009 0.115 1238.685 0.01893
0.09715 -0.12260 0.54540 0.56739 0.16348 0.963 0.113 1238.715 0.01896
0.09728 -0.12276 0.54612 0.56813 0.16536 0.906 0.117 1238.745 0.01898
0.09740 -0.12292 0.54683 0.56888 0.16724 0.907 0.117 1238.775 0.01901
0.09753 -0.12308 0.54755 0.56963 0.16913 1.035 0.117 1238.805 0.01903
0.09766 -0.12324 0.54827 0.57037 0.17101 0.779 0.116 1238.834 0.01905
0.09779 -0.12340 0.54899 0.57112 0.17289 0.975 0.120 1238.864 0.01908
0.09792 -0.12356 0.54970 0.57186 0.17477 0.917 0.125 1238.894 0.01910
0.09804 -0.12372 0.55042 0.57261 0.17665 0.825 0.111 1238.924 0.01913
0.09817 -0.12389 0.55114 0.57336 0.17854 0.848 0.121 1238.954 0.01915
0.09830 -0.12405 0.55186 0.57410 0.18042 0.813 0.119 1238.984 0.01918
0.09843 -0.12421 0.55257 0.57485 0.18230 0.813 0.119 1239.014 0.01920
0.09855 -0.12437 0.55329 0.57560 0.18419 0.895 0.116 1239.044 0.01923
0.09868 -0.12453 0.55401 0.57634 0.18607 0.884 0.114 1239.073 0.01925
0.09881 -0.12469 0.55473 0.57709 0.18795 0.907 0.116 1239.103 0.01928
0.09894 -0.12485 0.55544 0.57784 0.18983 1.035 0.124 1239.133 0.01930
0.09907 -0.12501 0.55616 0.57858 0.19172 0.943 0.119 1239.163 0.01933
0.09919 -0.12518 0.55688 0.57933 0.19360 1.012 0.123 1239.193 0.01935
0.09932 -0.12534 0.55760 0.58007 0.19548 0.873 0.114 1239.223 0.01937
0.09945 -0.12550 0.55831 0.58082 0.19737 0.979 0.121 1239.253 0.01940
0.09958 -0.12566 0.55903 0.58157 0.19925 0.898 0.124 1239.283 0.01942
0.09970 -0.12582 0.55975 0.58231 0.20113 0.979 0.128 1239.313 0.01945
0.09983 -0.12598 0.56047 0.58306 0.20302 0.841 0.120 1239.342 0.01947
0.09996 -0.12614 0.56118 0.58381 0.20490 0.946 0.119 1239.372 0.01950
0.10009 -0.12630 0.56190 0.58455 0.20678 1.108 0.121 1239.402 0.01952
0.10022 -0.12647 0.56262 0.58530 0.20867 1.062 0.118 1239.432 0.01955
0.10034 -0.12663 0.56334 0.58605 0.21055 0.829 0.120 1239.462 0.01957
0.10047 -0.12679 0.56405 0.58679 0.21243 0.852 0.121 1239.492 0.01960
0.10060 -0.12695 0.56477 0.58754 0.21432 0.758 0.115 1239.522 0.01962
0.10073 -0.12711 0.56549 0.58829 0.21620 1.037 0.117 1239.552 0.01964
0.10086 -0.12727 0.56621 0.58904 0.21809 0.839 0.121 1239.581 0.01967
0.10098 -0.12743 0.56693 0.58978 0.21997 0.944 0.126 1239.611 0.01969
0.10111 -0.12760 0.56764 0.59053 0.22185 0.863 0.122 1239.641 0.01972
0.10124 -0.12776 0.56836 0.59128 0.22374 0.944 0.127 1239.671 0.01974
0.10137 -0.12792 0.56908 0.59202 0.22562 0.886 0.123 1239.701 0.01977
0.10149 -0.12808 0.56980 0.59277 0.22751 0.956 0.127 1239.731 0.01979
0.10162 -0.12824 0.57052 0.59352 0.22939 0.817 0.119 1239.761 0.01982
0.10175 -0.12840 0.57123 0.59426 0.23128 0.828 0.120 1239.791 0.01984
0.10188 -0.12856 0.57195 0.59501 0.23316 0.701 0.112 1239.820 0.01987
0.10201 -0.12873 0.57267 0.59576 0.23504 0.831 0.120 1239.850 0.01989
0.10213 -0.12889 0.57339 0.59650 0.23693 0.902 0.124 1239.880 0.01992
0.10226 -0.12905 0.57411 0.59725 0.23881 0.832 0.120 1239.910 0.01994
0.10239 -0.12921 0.57483 0.59800 0.24070 0.692 0.111 1239.940 0.01996
0.10252 -0.12937 0.57554 0.59875 0.24258 1.020 0.117 1239.970 0.01999
0.10265 -0.12953 0.57626 0.59949 0.24447 1.113 0.121 1240.000 0.02001
0.10277 -0.12969 0.57698 0.60024 0.24635 1.056 0.118 1240.030 0.02004
0.10290 -0.12986 0.57770 0.60099 0.24824 1.044 0.117 1240.059 0.02006
0.10303 -0.13002 0.57842 0.60174 0.25012 0.904 0.116 1240.089 0.02009
0.10316 -0.13018 0.57913 0.60248 0.25201 1.020 0.124 1240.119 0.02011
0.10329 -0.13034 0.57985 0.60323 0.25389 0.774 0.117 1240.149 0.02014
0.10341 -0.13050 0.58057 0.60398 0.25578 1.067 0.126 1240.179 0.02016
0.10354 -0.13066 0.58129 0.60472 0.25766 1.080 0.120 1240.209 0.02019
0.10367 -0.13082 0.58201 0.60547 0.25955 1.103 0.128 1240.239 0.02021
0.10380 -0.13099 0.58273 0.60622 0.26144 0.729 0.114 1240.269 0.02023
0.10393 -0.13115 0.58345 0.60697 0.26332 0.916 0.125 1240.299 0.02026
0.10405 -0.13131 0.58416 0.60771 0.26521 1.057 0.119 1240.328 0.02028
0.10418 -0.13147 0.58488 0.60846 0.26709 1.033 0.117 1240.358 0.02031
0.10431 -0.13163 0.58560 0.60921 0.26898 0.881 0.123 1240.388 0.02033
0.10444 -0.13179 0.58632 0.60996 0.27086 0.951 0.120 1240.418 0.02036
0.10457 -0.13196 0.58704 0.61070 0.27275 1.069 0.126 1240.448 0.02038
0.10469 -0.13212 0.58776 0.61145 0.27464 0.893 0.124 1240.478 0.02041
0.10482 -0.13228 0.58848 0.61220 0.27652 0.847 0.121 1240.508 0.02043
0.10495 -0.13244 0.58919 0.61295 0.27841 0.813 0.119 1240.538 0.02046
0.10508 -0.13260 0.58991 0.61370 0.28029 0.931 0.119 1240.567 0.02048
0.10521 -0.13276 0.59063 0.61444 0.28218 0.990 0.129 1240.597 0.02050
0.10533 -0.13292 0.59135 0.61519 0.28407 1.060 0.118 1240.627 0.02053
0.10546 -0.13309 0.59207 0.61594 0.28595 1.107 0.121 1240.657 0.02055
0.10559 -0.13325 0.59279 0.61669 0.28784 1.119 0.122 1240.687 0.02058
0.10572 -0.13341 0.59351 0.61743 0.28973 1.225 0.127 1240.717 0.02060
0.10585 -0.13357 0.59423 0.61818 0.29161 0.872 0.123 1240.747 0.02063
0.10597 -0.13373 0.59494 0.61893 0.29350 0.744 0.115 1240.777 0.02065
0.10610 -0.13389 0.59566 0.61968 0.29539 0.990 0.122 1240.806 0.02068
0.10623 -0.13406 0.59638 0.62043 0.29727 1.014 0.116 1240.836 0.02070
0.10636 -0.13422 0.59710 0.62117 0.29916 0.789 0.118 1240.866 0.02073
0.10649 -0.13438 0.59782 0.62192 0.30105 0.989 0.123 1240.896 0.02075
0.10661 -0.13454 0.59854 0.62267 0.30293 0.907 0.125 1240.926 0.02078
0.10674 -0.13470 0.59926 0.62342 0.30482 1.037 0.124 1240.956 0.02080
0.10687 -0.13486 0.59998 0.62417 0.30671 1.179 0.125 1240.986 0.02082
0.10700 -0.13503 0.60070 0.62491 0.30859 0.896 0.124 1241.016 0.02085
0.10713 -0.13519 0.60142 0.62566 0.31048 0.955 0.120 1241.045 0.02087
0.10725 -0.13535 0.60214 0.62641 0.31237 1.121 0.129 1241.075 0.02090
0.10738 -0.13551 0.60285 0.62716 0.31426 1.204 0.119 1241.105 0.02092
0.10751 -0.13567 0.60357 0.62791 0.31614 1.240 0.127 1241.135 0.02095
0.10764 -0.13583 0.60429 0.62866 0.31803 1.205 0.119 1241.165 0.02097
0.10777 -0.13600 0.60501 0.62940 0.31992 1.073 0.120 1241.195 0.02100
0.10790 -0.13616 0.60573 0.63015 0.32181 0.861 0.122 1241.225 0.02102
0.10802 -0.13632 0.60645 0.63090 0.32369 1.014 0.124 1241.255 0.02105
0.10815 -0.13648 0.60717 0.63165 0.32558 1.167 0.125 1241.285 0.02107
0.10828 -0.13664 0.60789 0.63240 0.32747 0.909 0.125 1241.314 0.02109
0.10841 -0.13680 0.60861 0.63315 0.32936 1.146 0.117 1241.344 0.02112
0.10854 -0.13697 0.60933 0.63389 0.33125 1.063 0.119 1241.374 0.02114
0.10866 -0.13713 0.61005 0.63464 0.33313 0.981 0.122 1241.404 0.02117
0.10879 -0.13729 0.61077 0.63539 0.33502 0.958 0.121 1241.434 0.02119
0.10892 -0.13745 0.61149 0.63614 0.33691 1.076 0.126 1241.464 0.02122
0.10905 -0.13761 0.61221 0.63689 0.33880 1.077 0.120 1241.494 0.02124
0.10918 -0.13777 0.61293 0.63764 0.34069 1.041 0.125 1241.524 0.02127
0.10930 -0.13794 0.61365 0.63838 0.34258 0.876 0.123 1241.553 0.02129
0.10943 -0.13810 0.61437 0.63913 0.34446 1.053 0.126 1241.583 0.02132
0.10956 -0.13826 0.61508 0.63988 0.34635 0.947 0.120 1241.613 0.02134
0.10969 -0.13842 0.61580 0.64063 0.34824 1.243 0.128 1241.643 0.02137
0.10982 -0.13858 0.61652 0.64138 0.35013 0.890 0.124 1241.673 0.02139
0.10995 -0.13874 0.61724 0.64213 0.35202 0.891 0.124 1241.703 0.02141
0.11007 -0.13891 0.61796 0.64288 0.35391 0.891 0.117 1241.733 0.02144
0.11020 -0.13907 0.61868 0.64363 0.35580 0.867 0.123 1241.763 0.02146
0.11033 -0.13923 0.61940 0.64437 0.35769 0.832 0.121 1241.792 0.02149
0.11046 -0.13939 0.62012 0.64512 0.35957 0.879 0.123 1241.822 0.02151
0.11059 -0.13955 0.62084 0.64587 0.36146 1.150 0.123 1241.852 0.02154
0.11072 -0.13972 0.62156 0.64662 0.36335 0.961 0.121 1241.882 0.02156
0.11084 -0.13988 0.62228 0.64737 0.36524 1.008 0.117 1241.912 0.02159
0.11097 -0.14004 0.62300 0.64812 0.36713 1.079 0.127 1241.942 0.02161
0.11110 -0.14020 0.62372 0.64887 0.36902 0.748 0.116 1241.972 0.02164
0.11123 -0.14036 0.62444 0.64962 0.37091 0.807 0.112 1242.002 0.02166
0.11136 -0.14052 0.62516 0.65037 0.37280 0.902 0.125 1242.031 0.02168
0.11148 -0.14069 0.62588 0.65111 0.37469 1.021 0.124 1242.061 0.02171
0.11161 -0.14085 0.62660 0.65186 0.37658 1.163 0.124 1242.091 0.02173
0.11174 -0.14101 0.62732 0.65261 0.37847 1.210 0.127 1242.121 0.02176
0.11187 -0.14117 0.62804 0.65336 0.38036 0.986 0.123 1242.151 0.02178
0.11200 -0.14133 0.62876 0.65411 0.38225 1.023 0.124 1242.181 0.02181
0.11213 -0.14150 0.62948 0.65486 0.38414 0.999 0.130 1242.211 0.02183
0.11225 -0.14166 0.63020 0.65561 0.38603 1.130 0.123 1242.241 0.02186
0.11238 -0.14182 0.63092 0.65636 0.38792 1.154 0.124 1242.271 0.02188
0.11251 -0.14198 0.63164 0.65711 0.38981 1.107 0.122 1242.300 0.02191
0.11264 -0.14214 0.63236 0.65786 0.39170 0.858 0.122 1242.330 0.02193
0.11277 -0.14231 0.63308 0.65861 0.39359 0.988 0.123 1242.360 0.02196
0.11290 -0.14247 0.63380 0.65936 0.39548 0.929 0.119 1242.390 0.02198
0.11302 -0.14263 0.63452 0.66011 0.39737 0.928 0.119 1242.420 0.02200
0.11315 -0.14279 0.63525 0.66085 0.39926 0.858 0.122 1242.450 0.02203
0.11328 -0.14295 0.63597 0.66160 0.40115 0.882 0.124 1242.480 0.02205
0.11341 -0.14312 0.63669 0.66235 0.40304 1.131 0.116 1242.510 0.02208
0.11354 -0.14328 0.63741 0.66310 0.40493 0.977 0.122 1242.539 0.02210
0.11367 -0.14344 0.63813 0.66385 0.40682 0.928 0.127 1242.569 0.02213
0.11379 -0.14360 0.63885 0.66460 0.40871 1.070 0.127 1242.599 0.02215
0.11392 -0.14376 0.63957 0.66535 0.41060 0.976 0.122 1242.629 0.02218
0.11405 -0.14392 0.64029 0.66610 0.41249 1.083 0.127 1242.659 0.02220
0.11418 -0.14409 0.64101 0.66685 0.41438 0.786 0.118 1242.689 0.02223
0.11431 -0.14425 0.64173 0.66760 0.41628 0.940 0.120 1242.719 0.02225
0.11444 -0.14441 0.64245 0.66835 0.41817 0.869 0.123 1242.749 0.02227
0.11456 -0.14457 0.64317 0.66910 0.42006 1.165 0.118 1242.778 0.02230
0.11469 -0.14473 0.64389 0.66985 0.42195 1.178 0.118 1242.808 0.02232
0.11482 -0.14490 0.64461 0.67060 0.42384 0.868 0.123 1242.838 0.02235
0.11495 -0.14506 0.64533 0.67135 0.42573 1.048 0.119 1242.868 0.02237
0.11508 -0.14522 0.64605 0.67210 0.42762 1.155 0.124 1242.898 0.02240
0.11521 -0.14538 0.64677 0.67285 0.42951 0.822 0.121 1242.928 0.02242
0.11533 -0.14554 0.64749 0.67360 0.43141 1.025 0.117 1242.958 0.02245
0.11546 -0.14571 0.64822 0.67435 0.43330 0.988 0.123 1242.988 0.02247
0.11559 -0.14587 0.64894 0.67510 0.43519 1.024 0.117 1243.017 0.02250
0.11572 -0.14603 0.64966 0.67585 0.43708 0.964 0.122 1243.047 0.02252
0.11585 -0.14619 0.65038 0.67660 0.43897 0.976 0.122 1243.077 0.02254
0.11598 -0.14635 0.65110 0.67735 0.44087 0.905 0.117 1243.107 0.02257
0.11610 -0.14652 0.65182 0.67810 0.44276 0.964 0.121 1243.137 0.02259
0.11623 -0.14668 0.65254 0.67885 0.44465 0.964 0.121 1243.167 0.02262
0.11636 -0.14684 0.65326 0.67960 0.44654 1.201 0.126 1243.197 0.02264
0.11649 -0.14700 0.65398 0.68035 0.44843 1.167 0.132 1243.227 0.02267
0.11662 -0.14717 0.65470 0.68110 0.45033 1.024 0.125 1243.257 0.02269
0.11675 -0.14733 0.65543 0.68185 0.45222 0.977 0.121 1243.286 0.02272
0.11688 -0.14749 0.65615 0.68260 0.45411 0.941 0.120 1243.316 0.02274
0.11700 -0.14765 0.65687 0.68335 0.45600 1.025 0.118 1243.346 0.02277
0.11713 -0.14781 0.65759 0.68410 0.45790 0.930 0.127 1243.376 0.02279
0.11726 -0.14798 0.65831 0.68485 0.45979 1.072 0.120 1243.406 0.02282
0.11739 -0.14814 0.65903 0.68560 0.46168 0.894 0.125 1243.436 0.02284
0.11752 -0.14830 0.65975 0.68635 0.46357 1.013 0.124 1243.466 0.02286
0.11765 -0.14846 0.66047 0.68710 0.46547 1.027 0.125 1243.496 0.02289
0.11777 -0.14862 0.66119 0.68785 0.46736 0.965 0.122 1243.525 0.02291
0.11790 -0.14879 0.66192 0.68860 0.46925 0.965 0.121 1243.555 0.02294
0.11803 -0.14895 0.66264 0.68935 0.47114 0.885 0.126 1243.585 0.02296
0.11816 -0.14911 0.66336 0.69010 0.47304 0.859 0.197 1243.615 0.02299
0.11829 -0.14927 0.66408 0.69085 0.47493 0.908 0.118 1243.645 0.02301
0.11842 -0.14943 0.66480 0.69160 0.47682 0.826 0.114 1243.675 0.02304
0.11855 -0.14960 0.66552 0.69235 0.47872 1.095 0.122 1243.705 0.02306
0.11867 -0.14976 0.66624 0.69310 0.48061 1.055 0.127 1243.735 0.02309
0.11880 -0.14992 0.66697 0.69385 0.48250 1.097 0.130 1243.764 0.02311
0.11893 -0.15008 0.66769 0.69461 0.48440 0.875 0.124 1243.794 0.02313
0.11906 -0.15025 0.66841 0.69536 0.48629 1.142 0.124 1243.824 0.02316
0.11919 -0.15041 0.66913 0.69611 0.48818 1.036 0.126 1243.854 0.02318
0.11932 -0.15057 0.66985 0.69686 0.49008 1.106 0.122 1243.884 0.02321
0.11945 -0.15073 0.67057 0.69761 0.49197 1.077 0.121 1243.914 0.02323
0.11957 -0.15089 0.67130 0.69836 0.49387 1.013 0.117 1243.944 0.02326
0.11970 -0.15106 0.67202 0.69911 0.49576 1.104 0.122 1243.974 0.02328
0.11983 -0.15122 0.67274 0.69986 0.49765 0.952 0.121 1244.003 0.02331
0.11996 -0.15138 0.67346 0.70061 0.49955 1.058 0.127 1244.033 0.02333
0.12009 -0.15154 0.67418 0.70136 0.50144 0.927 0.119 1244.063 0.02336
0.12022 -0.15171 0.67490 0.70211 0.50334 1.027 0.125 1244.093 0.02338
0.12034 -0.15187 0.67563 0.70286 0.50523 0.920 0.119 1244.123 0.02341
0.12047 -0.15203 0.67635 0.70361 0.50712 0.932 0.120 1244.153 0.02343
0.12060 -0.15219 0.67707 0.70437 0.50902 0.897 0.125 1244.183 0.02345
0.12073 -0.15235 0.67779 0.70512 0.51091 0.886 0.124 1244.213 0.02348
0.12086 -0.15252 0.67851 0.70587 0.51281 1.017 0.125 1244.243 0.02350
0.12099 -0.15268 0.67924 0.70662 0.51470 0.827 0.121 1244.272 0.02353
0.12112 -0.15284 0.67996 0.70737 0.51660 1.210 0.127 1244.302 0.02355
0.12125 -0.15300 0.68068 0.70812 0.51849 1.091 0.128 1244.332 0.02358
0.12137 -0.15317 0.68140 0.70887 0.52039 1.102 0.122 1244.362 0.02360
0.12150 -0.15333 0.68212 0.70962 0.52228 0.911 0.126 1244.392 0.02363
0.12163 -0.15349 0.68285 0.71037 0.52418 0.935 0.127 1244.422 0.02365
0.12176 -0.15365 0.68357 0.71112 0.52607 1.209 0.127 1244.452 0.02368
0.12189 -0.15382 0.68429 0.71188 0.52797 0.994 0.123 1244.482 0.02370
0.12202 -0.15398 0.68501 0.71263 0.52986 1.077 0.120 1244.511 0.02372
0.12215 -0.15414 0.68573 0.71338 0.53176 0.982 0.130 1244.541 0.02375
0.12227 -0.15430 0.68646 0.71413 0.53365 0.971 0.129 1244.571 0.02377
