x y z dist_scaled dist_frac flux_norm sig_norm wavelength redshift
0.04847 -0.15299 0.47627 0.50258 0.00000 1.055 0.154 1236.115 0.01682
0.04854 -0.15321 0.47698 0.50333 0.00188 0.890 0.144 1236.145 0.01684
0.04861 -0.15344 0.47768 0.50407 0.00375 1.069 0.155 1236.175 0.01687
0.04868 -0.15367 0.47839 0.50481 0.00563 1.084 0.146 1236.205 0.01689
0.04875 -0.15389 0.47909 0.50556 0.00751 0.906 0.144 1236.235 0.01692
0.04883 -0.15412 0.47980 0.50630 0.00938 1.237 0.155 1236.265 0.01694
0.04890 -0.15435 0.48050 0.50705 0.01126 0.876 0.144 1236.295 0.01697
0.04897 -0.15457 0.48121 0.50779 0.01313 0.996 0.152 1236.325 0.01699
0.04904 -0.15480 0.48191 0.50853 0.01501 0.996 0.151 1236.355 0.01701
0.04911 -0.15503 0.48262 0.50928 0.01689 1.040 0.154 1236.384 0.01704
0.04918 -0.15525 0.48332 0.51002 0.01876 1.115 0.149 1236.414 0.01706
0.04926 -0.15548 0.48403 0.51077 0.02064 1.189 0.152 1236.444 0.01709
0.04933 -0.15571 0.48473 0.51151 0.02252 0.949 0.148 1236.474 0.01711
0.04940 -0.15593 0.48544 0.51225 0.02440 1.173 0.160 1236.504 0.01714
0.04947 -0.15616 0.48614 0.51300 0.02627 1.158 0.160 1236.534 0.01716
0.04954 -0.15638 0.48685 0.51374 0.02815 1.052 0.153 1236.564 0.01719
0.04961 -0.15661 0.48755 0.51449 0.03003 1.127 0.158 1236.594 0.01721
0.04969 -0.15684 0.48826 0.51523 0.03190 0.992 0.150 1236.623 0.01724
0.04976 -0.15706 0.48896 0.51597 0.03378 0.902 0.146 1236.653 0.01726
0.04983 -0.15729 0.48967 0.51672 0.03566 0.633 0.128 1236.683 0.01729
0.04990 -0.15752 0.49037 0.51746 0.03754 1.067 0.155 1236.713 0.01731
0.04997 -0.15774 0.49108 0.51821 0.03941 0.917 0.146 1236.743 0.01733
0.05005 -0.15797 0.49178 0.51895 0.04129 0.768 0.136 1236.773 0.01736
0.05012 -0.15820 0.49249 0.51970 0.04317 1.051 0.154 1236.803 0.01738
0.05019 -0.15842 0.49319 0.52044 0.04505 1.050 0.154 1236.833 0.01741
0.05026 -0.15865 0.49390 0.52118 0.04692 0.811 0.140 1236.862 0.01743
0.05033 -0.15888 0.49460 0.52193 0.04880 0.901 0.146 1236.892 0.01746
0.05040 -0.15910 0.49531 0.52267 0.05068 0.931 0.148 1236.922 0.01748
0.05048 -0.15933 0.49602 0.52342 0.05256 1.035 0.152 1236.952 0.01751
0.05055 -0.15956 0.49672 0.52416 0.05444 1.019 0.152 1236.982 0.01753
0.05062 -0.15978 0.49743 0.52491 0.05631 0.796 0.139 1237.012 0.01756
0.05069 -0.16001 0.49813 0.52565 0.05819 0.885 0.144 1237.042 0.01758
0.05076 -0.16024 0.49884 0.52640 0.06007 1.167 0.152 1237.072 0.01760
0.05084 -0.16046 0.49954 0.52714 0.06195 1.063 0.154 1237.101 0.01763
0.05091 -0.16069 0.50025 0.52788 0.06383 1.196 0.161 1237.131 0.01765
0.05098 -0.16092 0.50096 0.52863 0.06571 0.958 0.148 1237.161 0.01768
0.05105 -0.16114 0.50166 0.52937 0.06758 0.957 0.149 1237.191 0.01770
0.05112 -0.16137 0.50237 0.53012 0.06946 1.060 0.154 1237.221 0.01773
0.05119 -0.16160 0.50307 0.53086 0.07134 1.015 0.151 1237.251 0.01775
0.05127 -0.16182 0.50378 0.53161 0.07322 1.015 0.151 1237.281 0.01778
0.05134 -0.16205 0.50448 0.53235 0.07510 0.881 0.144 1237.311 0.01780
0.05141 -0.16228 0.50519 0.53310 0.07698 1.222 0.144 1237.341 0.01783
0.05148 -0.16250 0.50590 0.53384 0.07886 0.998 0.151 1237.370 0.01785
0.05155 -0.16273 0.50660 0.53459 0.08074 0.865 0.141 1237.400 0.01788
0.05163 -0.16296 0.50731 0.53533 0.08261 1.161 0.150 1237.430 0.01790
0.05170 -0.16318 0.50801 0.53608 0.08449 1.145 0.149 1237.460 0.01792
0.05177 -0.16341 0.50872 0.53682 0.08637 0.834 0.140 1237.490 0.01795
0.05184 -0.16364 0.50942 0.53757 0.08825 0.893 0.144 1237.520 0.01797
0.05191 -0.16386 0.51013 0.53831 0.09013 1.247 0.155 1237.550 0.01800
0.05198 -0.16409 0.51084 0.53906 0.09201 1.291 0.148 1237.580 0.01802
0.05206 -0.16432 0.51154 0.53980 0.09389 0.907 0.134 1237.609 0.01805
0.05213 -0.16454 0.51225 0.54055 0.09577 0.936 0.146 1237.639 0.01807
0.05220 -0.16477 0.51296 0.54129 0.09765 0.862 0.142 1237.669 0.01810
0.05227 -0.16500 0.51366 0.54204 0.09953 1.083 0.155 1237.699 0.01812
0.05234 -0.16522 0.51437 0.54278 0.10141 0.744 0.135 1237.729 0.01815
0.05242 -0.16545 0.51507 0.54353 0.10329 0.979 0.148 1237.759 0.01817
0.05249 -0.16568 0.51578 0.54427 0.10517 0.906 0.145 1237.789 0.01819
0.05256 -0.16591 0.51649 0.54502 0.10705 1.171 0.151 1237.819 0.01822
0.05263 -0.16613 0.51719 0.54576 0.10893 1.097 0.155 1237.848 0.01824
0.05270 -0.16636 0.51790 0.54651 0.11081 1.185 0.160 1237.878 0.01827
0.05278 -0.16659 0.51860 0.54725 0.11269 1.051 0.152 1237.908 0.01829
0.05285 -0.16681 0.51931 0.54800 0.11457 1.037 0.143 1237.938 0.01832
0.05292 -0.16704 0.52002 0.54874 0.11645 1.037 0.152 1237.968 0.01834
0.05299 -0.16727 0.52072 0.54949 0.11833 0.973 0.148 1237.998 0.01837
0.05306 -0.16749 0.52143 0.55024 0.12021 1.149 0.158 1238.028 0.01839
0.05313 -0.16772 0.52214 0.55098 0.12209 0.997 0.150 1238.058 0.01842
0.05321 -0.16795 0.52284 0.55173 0.12397 1.072 0.153 1238.087 0.01844
0.05328 -0.16817 0.52355 0.55247 0.12585 1.286 0.157 1238.117 0.01847
0.05335 -0.16840 0.52426 0.55322 0.12773 0.829 0.138 1238.147 0.01849
0.05342 -0.16863 0.52496 0.55396 0.12961 0.978 0.148 1238.177 0.01851
0.05349 -0.16886 0.52567 0.55471 0.13149 1.221 0.152 1238.207 0.01854
0.05357 -0.16908 0.52638 0.55545 0.13338 1.055 0.143 1238.237 0.01856
0.05364 -0.16931 0.52708 0.55620 0.13526 0.938 0.146 1238.267 0.01859
0.05371 -0.16954 0.52779 0.55695 0.13714 0.986 0.149 1238.297 0.01861
0.05378 -0.16976 0.52850 0.55769 0.13902 1.103 0.146 1238.327 0.01864
0.05385 -0.16999 0.52920 0.55844 0.14090 0.982 0.148 1238.356 0.01866
0.05393 -0.17022 0.52991 0.55918 0.14278 0.982 0.147 1238.386 0.01869
0.05400 -0.17044 0.53062 0.55993 0.14466 1.040 0.152 1238.416 0.01871
0.05407 -0.17067 0.53132 0.56067 0.14654 1.041 0.152 1238.446 0.01874
0.05414 -0.17090 0.53203 0.56142 0.14843 1.210 0.152 1238.476 0.01876
0.05421 -0.17113 0.53274 0.56217 0.15031 1.149 0.148 1238.506 0.01878
0.05429 -0.17135 0.53344 0.56291 0.15219 0.915 0.145 1238.536 0.01881
0.05436 -0.17158 0.53415 0.56366 0.15407 0.885 0.143 1238.566 0.01883
0.05443 -0.17181 0.53486 0.56440 0.15595 1.065 0.153 1238.595 0.01886
0.05450 -0.17203 0.53556 0.56515 0.15783 1.027 0.151 1238.625 0.01888
0.05457 -0.17226 0.53627 0.56590 0.15972 0.878 0.141 1238.655 0.01891
0.05464 -0.17249 0.53698 0.56664 0.16160 1.428 0.155 1238.685 0.01893
0.05472 -0.17271 0.53768 0.56739 0.16348 0.968 0.147 1238.715 0.01896
0.05479 -0.17294 0.53839 0.56813 0.16536 0.860 0.140 1238.745 0.01898
0.05486 -0.17317 0.53910 0.56888 0.16724 0.978 0.148 1238.775 0.01901
0.05493 -0.17340 0.53981 0.56963 0.16913 0.946 0.146 1238.805 0.01903
0.05500 -0.17362 0.54051 0.57037 0.17101 1.171 0.149 1238.834 0.01905
0.05508 -0.17385 0.54122 0.57112 0.17289 0.935 0.145 1238.864 0.01908
0.05515 -0.17408 0.54193 0.57186 0.17477 0.918 0.145 1238.894 0.01910
0.05522 -0.17430 0.54263 0.57261 0.17665 0.947 0.135 1238.924 0.01913
0.05529 -0.17453 0.54334 0.57336 0.17854 0.912 0.144 1238.954 0.01915
0.05536 -0.17476 0.54405 0.57410 0.18042 0.990 0.149 1238.984 0.01918
0.05544 -0.17499 0.54476 0.57485 0.18230 1.064 0.153 1239.014 0.01920
0.05551 -0.17521 0.54546 0.57560 0.18419 0.922 0.144 1239.044 0.01923
0.05558 -0.17544 0.54617 0.57634 0.18607 0.917 0.145 1239.073 0.01925
0.05565 -0.17567 0.54688 0.57709 0.18795 0.931 0.146 1239.103 0.01928
0.05572 -0.17590 0.54759 0.57784 0.18983 1.101 0.155 1239.133 0.01930
0.05580 -0.17612 0.54829 0.57858 0.19172 0.778 0.136 1239.163 0.01933
0.05587 -0.17635 0.54900 0.57933 0.19360 0.822 0.139 1239.193 0.01935
0.05594 -0.17658 0.54971 0.58007 0.19548 0.792 0.136 1239.223 0.01937
0.05601 -0.17680 0.55041 0.58082 0.19737 0.674 0.129 1239.253 0.01940
0.05608 -0.17703 0.55112 0.58157 0.19925 0.412 0.108 1239.283 0.01942
0.05616 -0.17726 0.55183 0.58231 0.20113 0.266 0.093 1239.313 0.01945
0.05623 -0.17749 0.55254 0.58306 0.20302 0.281 0.095 1239.342 0.01947
0.05630 -0.17771 0.55324 0.58381 0.20490 0.106 0.072 1239.372 0.01950
0.05637 -0.17794 0.55395 0.58455 0.20678 0.047 0.061 1239.402 0.01952
0.05644 -0.17817 0.55466 0.58530 0.20867 0.033 0.058 1239.432 0.01955
0.05652 -0.17840 0.55537 0.58605 0.21055 0.033 0.058 1239.462 0.01957
0.05659 -0.17862 0.55608 0.58679 0.21243 0.048 0.062 1239.492 0.01960
0.05666 -0.17885 0.55678 0.58754 0.21432 0.018 0.055 1239.522 0.01962
0.05673 -0.17908 0.55749 0.58829 0.21620 0.019 0.055 1239.552 0.01964
0.05680 -0.17930 0.55820 0.58904 0.21809 0.048 0.062 1239.581 0.01967
0.05688 -0.17953 0.55891 0.58978 0.21997 0.048 0.061 1239.611 0.01969
0.05695 -0.17976 0.55961 0.59053 0.22185 0.062 0.064 1239.641 0.01972
0.05702 -0.17999 0.56032 0.59128 0.22374 0.034 0.058 1239.671 0.01974
0.05709 -0.18021 0.56103 0.59202 0.22562 0.106 0.072 1239.701 0.01977
0.05716 -0.18044 0.56174 0.59277 0.22751 0.237 0.090 1239.731 0.01979
0.05724 -0.18067 0.56245 0.59352 0.22939 0.208 0.085 1239.761 0.01982
0.05731 -0.18090 0.56315 0.59426 0.23128 0.397 0.106 1239.791 0.01984
0.05738 -0.18112 0.56386 0.59501 0.23316 0.498 0.115 1239.820 0.01987
0.05745 -0.18135 0.56457 0.59576 0.23504 0.425 0.108 1239.850 0.01989
0.05752 -0.18158 0.56528 0.59650 0.23693 0.744 0.133 1239.880 0.01992
0.05760 -0.18181 0.56599 0.59725 0.23881 0.802 0.137 1239.910 0.01994
0.05767 -0.18203 0.56669 0.59800 0.24070 0.684 0.128 1239.940 0.01996
0.05774 -0.18226 0.56740 0.59875 0.24258 0.741 0.131 1239.970 0.01999
0.05781 -0.18249 0.56811 0.59949 0.24447 0.929 0.143 1240.000 0.02001
0.05788 -0.18272 0.56882 0.60024 0.24635 0.930 0.143 1240.030 0.02004
0.05796 -0.18294 0.56953 0.60099 0.24824 1.147 0.147 1240.059 0.02006
0.05803 -0.18317 0.57023 0.60174 0.25012 1.019 0.149 1240.089 0.02009
0.05810 -0.18340 0.57094 0.60248 0.25201 1.105 0.145 1240.119 0.02011
0.05817 -0.18363 0.57165 0.60323 0.25389 1.090 0.144 1240.149 0.02014
0.05825 -0.18385 0.57236 0.60398 0.25578 0.931 0.144 1240.179 0.02016
0.05832 -0.18408 0.57307 0.60472 0.25766 1.047 0.150 1240.209 0.02019
0.05839 -0.18431 0.57377 0.60547 0.25955 1.233 0.151 1240.239 0.02021
0.05846 -0.18454 0.57448 0.60622 0.26144 0.916 0.143 1240.269 0.02023
0.05853 -0.18476 0.57519 0.60697 0.26332 0.944 0.144 1240.299 0.02026
0.05861 -0.18499 0.57590 0.60771 0.26521 0.930 0.143 1240.328 0.02028
0.05868 -0.18522 0.57661 0.60846 0.26709 1.045 0.150 1240.358 0.02031
0.05875 -0.18545 0.57732 0.60921 0.26898 1.276 0.153 1240.388 0.02033
0.05882 -0.18567 0.57803 0.60996 0.27086 1.131 0.155 1240.418 0.02036
0.05889 -0.18590 0.57873 0.61070 0.27275 0.784 0.135 1240.448 0.02038
0.05897 -0.18613 0.57944 0.61145 0.27464 1.174 0.157 1240.478 0.02041
0.05904 -0.18636 0.58015 0.61220 0.27652 0.973 0.146 1240.508 0.02043
0.05911 -0.18658 0.58086 0.61295 0.27841 1.102 0.144 1240.538 0.02046
0.05918 -0.18681 0.58157 0.61370 0.28029 0.827 0.138 1240.567 0.02048
0.05925 -0.18704 0.58228 0.61444 0.28218 1.058 0.142 1240.597 0.02050
0.05933 -0.18727 0.58298 0.61519 0.28407 0.957 0.146 1240.627 0.02053
0.05940 -0.18749 0.58369 0.61594 0.28595 1.042 0.150 1240.657 0.02055
0.05947 -0.18772 0.58440 0.61669 0.28784 0.956 0.145 1240.687 0.02058
0.05954 -0.18795 0.58511 0.61743 0.28973 1.085 0.152 1240.717 0.02060
0.05962 -0.18818 0.58582 0.61818 0.29161 1.042 0.149 1240.747 0.02063
0.05969 -0.18840 0.58653 0.61893 0.29350 1.056 0.141 1240.777 0.02065
0.05976 -0.18863 0.58724 0.61968 0.29539 1.027 0.149 1240.806 0.02068
0.05983 -0.18886 0.58795 0.62043 0.29727 0.969 0.146 1240.836 0.02070
0.05990 -0.18909 0.58865 0.62117 0.29916 1.127 0.154 1240.866 0.02073
0.05998 -0.18932 0.58936 0.62192 0.30105 0.983 0.146 1240.896 0.02075
0.06005 -0.18954 0.59007 0.62267 0.30293 1.098 0.153 1240.926 0.02078
0.06012 -0.18977 0.59078 0.62342 0.30482 1.272 0.145 1240.956 0.02080
0.06019 -0.19000 0.59149 0.62417 0.30671 1.056 0.151 1240.986 0.02082
0.06026 -0.19023 0.59220 0.62491 0.30859 0.883 0.142 1241.016 0.02085
0.06034 -0.19045 0.59291 0.62566 0.31048 1.113 0.154 1241.045 0.02087
0.06041 -0.19068 0.59362 0.62641 0.31237 1.271 0.162 1241.075 0.02090
0.06048 -0.19091 0.59433 0.62716 0.31426 1.084 0.152 1241.105 0.02092
0.06055 -0.19114 0.59504 0.62791 0.31614 0.839 0.139 1241.135 0.02095
0.06062 -0.19136 0.59574 0.62866 0.31803 0.940 0.144 1241.165 0.02097
0.06070 -0.19159 0.59645 0.62940 0.31992 1.044 0.141 1241.195 0.02100
0.06077 -0.19182 0.59716 0.63015 0.32181 0.981 0.147 1241.225 0.02102
0.06084 -0.19205 0.59787 0.63090 0.32369 0.863 0.139 1241.255 0.02105
0.06091 -0.19228 0.59858 0.63165 0.32558 1.010 0.149 1241.285 0.02107
0.06099 -0.19250 0.59929 0.63240 0.32747 0.840 0.138 1241.314 0.02109
0.06106 -0.19273 0.60000 0.63315 0.32936 1.131 0.146 1241.344 0.02112
0.06113 -0.19296 0.60071 0.63389 0.33125 0.916 0.131 1241.374 0.02114
0.06120 -0.19319 0.60142 0.63464 0.33313 1.072 0.151 1241.404 0.02117
0.06127 -0.19342 0.60213 0.63539 0.33502 1.009 0.148 1241.434 0.02119
0.06135 -0.19364 0.60284 0.63614 0.33691 0.870 0.148 1241.464 0.02122
0.06142 -0.19387 0.60355 0.63689 0.33880 0.831 0.144 1241.494 0.02124
0.06149 -0.19410 0.60426 0.63764 0.34069 0.800 0.136 1241.524 0.02127
0.06156 -0.19433 0.60496 0.63838 0.34258 1.190 0.170 1241.553 0.02129
0.06164 -0.19455 0.60567 0.63913 0.34446 1.060 0.164 1241.583 0.02132
0.06171 -0.19478 0.60638 0.63988 0.34635 0.946 0.144 1241.613 0.02134
0.06178 -0.19501 0.60709 0.64063 0.34824 1.008 0.147 1241.643 0.02137
0.06185 -0.19524 0.60780 0.64138 0.35013 0.965 0.145 1241.673 0.02139
0.06192 -0.19547 0.60851 0.64213 0.35202 0.904 0.142 1241.703 0.02141
0.06200 -0.19569 0.60922 0.64288 0.35391 0.896 0.142 1241.733 0.02144
0.06207 -0.19592 0.60993 0.64363 0.35580 0.694 0.129 1241.763 0.02146
0.06214 -0.19615 0.61064 0.64437 0.35769 0.909 0.143 1241.792 0.02149
0.06221 -0.19638 0.61135 0.64512 0.35957 1.067 0.151 1241.822 0.02151
0.06229 -0.19661 0.61206 0.64587 0.36146 0.980 0.147 1241.852 0.02154
0.06236 -0.19683 0.61277 0.64662 0.36335 0.851 0.139 1241.882 0.02156
0.06243 -0.19706 0.61348 0.64737 0.36524 0.565 0.119 1241.912 0.02159
0.06250 -0.19729 0.61419 0.64812 0.36713 0.708 0.129 1241.942 0.02161
0.06257 -0.19752 0.61490 0.64887 0.36902 0.708 0.129 1241.972 0.02164
0.06265 -0.19775 0.61561 0.64962 0.37091 0.594 0.121 1242.002 0.02166
0.06272 -0.19797 0.61632 0.65037 0.37280 0.722 0.130 1242.031 0.02168
0.06279 -0.19820 0.61703 0.65111 0.37469 0.536 0.117 1242.061 0.02171
0.06286 -0.19843 0.61774 0.65186 0.37658 0.608 0.122 1242.091 0.02173
0.06294 -0.19866 0.61845 0.65261 0.37847 0.550 0.117 1242.121 0.02176
0.06301 -0.19889 0.61916 0.65336 0.38036 0.693 0.128 1242.151 0.02178
0.06308 -0.19911 0.61987 0.65411 0.38225 0.780 0.134 1242.181 0.02181
0.06315 -0.19934 0.62058 0.65486 0.38414 0.822 0.137 1242.211 0.02183
0.06322 -0.19957 0.62129 0.65561 0.38603 0.908 0.142 1242.241 0.02186
0.06330 -0.19980 0.62200 0.65636 0.38792 0.908 0.142 1242.271 0.02188
0.06337 -0.20003 0.62271 0.65711 0.38981 0.981 0.147 1242.300 0.02191
0.06344 -0.20025 0.62342 0.65786 0.39170 1.038 0.150 1242.330 0.02193
0.06351 -0.20048 0.62413 0.65861 0.39359 0.851 0.139 1242.360 0.02196
0.06359 -0.20071 0.62484 0.65936 0.39548 0.822 0.137 1242.390 0.02198
0.06366 -0.20094 0.62555 0.66011 0.39737 0.922 0.143 1242.420 0.02200
0.06373 -0.20117 0.62626 0.66085 0.39926 1.078 0.143 1242.450 0.02203
0.06380 -0.20139 0.62697 0.66160 0.40115 1.292 0.155 1242.480 0.02205
0.06387 -0.20162 0.62768 0.66235 0.40304 0.978 0.146 1242.510 0.02208
0.06395 -0.20185 0.62839 0.66310 0.40493 0.977 0.136 1242.539 0.02210
0.06402 -0.20208 0.62910 0.66385 0.40682 0.963 0.146 1242.569 0.02213
0.06409 -0.20231 0.62981 0.66460 0.40871 1.104 0.144 1242.599 0.02215
0.06416 -0.20254 0.63052 0.66535 0.41060 0.991 0.147 1242.629 0.02218
0.06424 -0.20276 0.63123 0.66610 0.41249 0.833 0.137 1242.659 0.02220
0.06431 -0.20299 0.63194 0.66685 0.41438 1.118 0.145 1242.689 0.02223
0.06438 -0.20322 0.63265 0.66760 0.41628 1.188 0.158 1242.719 0.02225
0.06445 -0.20345 0.63336 0.66835 0.41817 0.975 0.136 1242.749 0.02227
0.06453 -0.20368 0.63407 0.66910 0.42006 1.231 0.151 1242.778 0.02230
0.06460 -0.20390 0.63478 0.66985 0.42195 0.834 0.137 1242.808 0.02232
0.06467 -0.20413 0.63549 0.67060 0.42384 1.048 0.150 1242.838 0.02235
0.06474 -0.20436 0.63620 0.67135 0.42573 0.962 0.145 1242.868 0.02237
0.06481 -0.20459 0.63691 0.67210 0.42762 0.976 0.146 1242.898 0.02240
0.06489 -0.20482 0.63762 0.67285 0.42951 0.891 0.141 1242.928 0.02242
0.06496 -0.20505 0.63833 0.67360 0.43141 0.791 0.134 1242.958 0.02245
0.06503 -0.20527 0.63905 0.67435 0.43330 1.231 0.151 1242.988 0.02247
0.06510 -0.20550 0.63976 0.67510 0.43519 1.047 0.150 1243.017 0.02250
0.06518 -0.20573 0.64047 0.67585 0.43708 1.118 0.144 1243.047 0.02252
0.06525 -0.20596 0.64118 0.67660 0.43897 0.932 0.143 1243.077 0.02254
0.06532 -0.20619 0.64189 0.67735 0.44087 0.946 0.144 1243.107 0.02257
0.06539 -0.20642 0.64260 0.67810 0.44276 0.931 0.143 1243.137 0.02259
0.06547 -0.20664 0.64331 0.67885 0.44465 0.831 0.137 1243.167 0.02262
0.06554 -0.20687 0.64402 0.67960 0.44654 1.101 0.144 1243.197 0.02264
0.06561 -0.20710 0.64473 0.68035 0.44843 0.902 0.141 1243.227 0.02267
0.06568 -0.20733 0.64544 0.68110 0.45033 0.957 0.145 1243.257 0.02269
0.06575 -0.20756 0.64615 0.68185 0.45222 0.886 0.140 1243.286 0.02272
0.06583 -0.20779 0.64686 0.68260 0.45411 0.886 0.140 1243.316 0.02274
0.06590 -0.20801 0.64757 0.68335 0.45600 0.999 0.147 1243.346 0.02277
0.06597 -0.20824 0.64829 0.68410 0.45790 1.140 0.155 1243.376 0.02279
0.06604 -0.20847 0.64900 0.68485 0.45979 1.069 0.142 1243.406 0.02282
0.06612 -0.20870 0.64971 0.68560 0.46168 0.984 0.146 1243.436 0.02284
0.06619 -0.20893 0.65042 0.68635 0.46357 1.186 0.157 1243.466 0.02286
0.06626 -0.20916 0.65113 0.68710 0.46547 0.922 0.142 1243.496 0.02289
0.06633 -0.20938 0.65184 0.68785 0.46736 0.831 0.136 1243.525 0.02291
0.06641 -0.20961 0.65255 0.68860 0.46925 0.877 0.138 1243.555 0.02294
0.06648 -0.20984 0.65326 0.68935 0.47114 1.023 0.148 1243.585 0.02296
0.06655 -0.21007 0.65397 0.69010 0.47304 1.015 0.147 1243.615 0.02299
0.06662 -0.21030 0.65469 0.69085 0.47493 1.202 0.149 1243.645 0.02301
0.06670 -0.21053 0.65540 0.69160 0.47682 0.951 0.143 1243.675 0.02304
0.06677 -0.21075 0.65611 0.69235 0.47872 1.069 0.140 1243.705 0.02306
0.06684 -0.21098 0.65682 0.69310 0.48061 0.847 0.136 1243.735 0.02309
0.06691 -0.21121 0.65753 0.69385 0.48250 0.877 0.138 1243.764 0.02311
0.06698 -0.21144 0.65824 0.69461 0.48440 1.173 0.146 1243.794 0.02313
0.06706 -0.21167 0.65895 0.69536 0.48629 0.982 0.135 1243.824 0.02316
0.06713 -0.21190 0.65966 0.69611 0.48818 1.144 0.144 1243.854 0.02318
0.06720 -0.21213 0.66038 0.69686 0.49008 1.127 0.144 1243.884 0.02321
0.06727 -0.21235 0.66109 0.69761 0.49197 1.063 0.140 1243.914 0.02323
0.06735 -0.21258 0.66180 0.69836 0.49387 0.894 0.139 1243.944 0.02326
0.06742 -0.21281 0.66251 0.69911 0.49576 0.944 0.143 1243.974 0.02328
0.06749 -0.21304 0.66322 0.69986 0.49765 1.166 0.147 1244.003 0.02331
0.06756 -0.21327 0.66393 0.70061 0.49955 1.106 0.153 1244.033 0.02333
0.06764 -0.21350 0.66464 0.70136 0.50144 1.206 0.158 1244.063 0.02336
0.06771 -0.21373 0.66536 0.70211 0.50334 1.051 0.149 1244.093 0.02338
0.06778 -0.21395 0.66607 0.70286 0.50523 1.065 0.141 1244.123 0.02341
0.06785 -0.21418 0.66678 0.70361 0.50712 1.008 0.147 1244.153 0.02343
0.06793 -0.21441 0.66749 0.70437 0.50902 1.008 0.147 1244.183 0.02345
0.06800 -0.21464 0.66820 0.70512 0.51091 1.092 0.142 1244.213 0.02348
0.06807 -0.21487 0.66891 0.70587 0.51281 1.008 0.147 1244.243 0.02350
0.06814 -0.21510 0.66963 0.70662 0.51470 1.008 0.137 1244.272 0.02353
0.06822 -0.21533 0.67034 0.70737 0.51660 1.036 0.148 1244.302 0.02355
0.06829 -0.21555 0.67105 0.70812 0.51849 0.965 0.144 1244.332 0.02358
0.06836 -0.21578 0.67176 0.70887 0.52039 1.162 0.137 1244.362 0.02360
0.06843 -0.21601 0.67247 0.70962 0.52228 1.233 0.141 1244.392 0.02363
0.06851 -0.21624 0.67318 0.71037 0.52418 1.078 0.151 1244.422 0.02365
0.06858 -0.21647 0.67390 0.71112 0.52607 1.020 0.147 1244.452 0.02368
0.06865 -0.21670 0.67461 0.71188 0.52797 1.104 0.152 1244.482 0.02370
0.06872 -0.21693 0.67532 0.71263 0.52986 1.215 0.149 1244.511 0.02372
0.06880 -0.21715 0.67603 0.71338 0.53176 0.976 0.145 1244.541 0.02375
0.06887 -0.21738 0.67674 0.71413 0.53365 0.919 0.141 1244.571 0.02377
