x y z dist_scaled dist_frac flux_norm wavelength redshift
-0.21082 0.17711 0.42045 0.50258 0.00000 1.061 1236.115 0.01682
-0.21113 0.17737 0.42107 0.50333 0.00188 1.084 1236.145 0.01684
-0.21144 0.17763 0.42169 0.50407 0.00375 1.127 1236.175 0.01687
-0.21175 0.17789 0.42232 0.50481 0.00563 1.146 1236.205 0.01689
-0.21206 0.17816 0.42294 0.50556 0.00751 0.863 1236.235 0.01692
-0.21238 0.17842 0.42356 0.50630 0.00938 0.998 1236.265 0.01694
-0.21269 0.17868 0.42418 0.50705 0.01126 1.084 1236.295 0.01697
-0.21300 0.17894 0.42481 0.50779 0.01313 1.035 1236.325 0.01699
-0.21331 0.17920 0.42543 0.50853 0.01501 1.043 1236.355 0.01701
-0.21362 0.17947 0.42605 0.50928 0.01689 1.027 1236.384 0.01704
-0.21394 0.17973 0.42667 0.51002 0.01876 0.954 1236.414 0.01706
-0.21425 0.17999 0.42730 0.51077 0.02064 0.876 1236.444 0.01709
-0.21456 0.18025 0.42792 0.51151 0.02252 0.895 1236.474 0.01711
-0.21487 0.18051 0.42854 0.51225 0.02440 0.970 1236.504 0.01714
-0.21519 0.18078 0.42916 0.51300 0.02627 1.008 1236.534 0.01716
-0.21550 0.18104 0.42979 0.51374 0.02815 0.897 1236.564 0.01719
-0.21581 0.18130 0.43041 0.51449 0.03003 1.006 1236.594 0.01721
-0.21612 0.18156 0.43103 0.51523 0.03190 1.030 1236.623 0.01724
-0.21643 0.18183 0.43165 0.51597 0.03378 1.004 1236.653 0.01726
-0.21675 0.18209 0.43228 0.51672 0.03566 0.989 1236.683 0.01729
-0.21706 0.18235 0.43290 0.51746 0.03754 1.080 1236.713 0.01731
-0.21737 0.18261 0.43352 0.51821 0.03941 1.131 1236.743 0.01733
-0.21768 0.18287 0.43414 0.51895 0.04129 1.125 1236.773 0.01736
-0.21799 0.18314 0.43477 0.51970 0.04317 0.962 1236.803 0.01738
-0.21831 0.18340 0.43539 0.52044 0.04505 0.956 1236.833 0.01741
-0.21862 0.18366 0.43601 0.52118 0.04692 1.107 1236.862 0.01743
-0.21893 0.18392 0.43663 0.52193 0.04880 0.893 1236.892 0.01746
-0.21924 0.18419 0.43726 0.52267 0.05068 0.963 1236.922 0.01748
-0.21956 0.18445 0.43788 0.52342 0.05256 1.009 1236.952 0.01751
-0.21987 0.18471 0.43850 0.52416 0.05444 1.133 1236.982 0.01753
-0.22018 0.18497 0.43913 0.52491 0.05631 0.953 1237.012 0.01756
-0.22049 0.18524 0.43975 0.52565 0.05819 0.971 1237.042 0.01758
-0.22081 0.18550 0.44037 0.52640 0.06007 0.979 1237.072 0.01760
-0.22112 0.18576 0.44099 0.52714 0.06195 1.032 1237.101 0.01763
-0.22143 0.18602 0.44162 0.52788 0.06383 0.975 1237.131 0.01765
-0.22174 0.18629 0.44224 0.52863 0.06571 0.939 1237.161 0.01768
-0.22205 0.18655 0.44286 0.52937 0.06758 0.892 1237.191 0.01770
-0.22237 0.18681 0.44349 0.53012 0.06946 0.869 1237.221 0.01773
-0.22268 0.18707 0.44411 0.53086 0.07134 0.891 1237.251 0.01775
-0.22299 0.18734 0.44473 0.53161 0.07322 0.926 1237.281 0.01778
-0.22330 0.18760 0.44536 0.53235 0.07510 1.044 1237.311 0.01780
-0.22362 0.18786 0.44598 0.53310 0.07698 0.990 1237.341 0.01783
-0.22393 0.18812 0.44660 0.53384 0.07886 0.933 1237.370 0.01785
-0.22424 0.18839 0.44723 0.53459 0.08074 0.949 1237.400 0.01788
-0.22455 0.18865 0.44785 0.53533 0.08261 0.929 1237.430 0.01790
-0.22487 0.18891 0.44847 0.53608 0.08449 0.941 1237.460 0.01792
-0.22518 0.18917 0.44909 0.53682 0.08637 0.973 1237.490 0.01795
-0.22549 0.18944 0.44972 0.53757 0.08825 1.052 1237.520 0.01797
-0.22580 0.18970 0.45034 0.53831 0.09013 0.957 1237.550 0.01800
-0.22612 0.18996 0.45096 0.53906 0.09201 0.971 1237.580 0.01802
-0.22643 0.19022 0.45159 0.53980 0.09389 0.966 1237.609 0.01805
-0.22674 0.19049 0.45221 0.54055 0.09577 1.152 1237.639 0.01807
-0.22705 0.19075 0.45283 0.54129 0.09765 1.076 1237.669 0.01810
-0.22737 0.19101 0.45346 0.54204 0.09953 0.940 1237.699 0.01812
-0.22768 0.19127 0.45408 0.54278 0.10141 0.893 1237.729 0.01815
-0.22799 0.19154 0.45470 0.54353 0.10329 0.971 1237.759 0.01817
-0.22830 0.19180 0.45533 0.54427 0.10517 1.072 1237.789 0.01819
-0.22862 0.19206 0.45595 0.54502 0.10705 1.123 1237.819 0.01822
-0.22893 0.19232 0.45658 0.54576 0.10893 0.988 1237.848 0.01824
-0.22924 0.19259 0.45720 0.54651 0.11081 1.010 1237.878 0.01827
-0.22956 0.19285 0.45782 0.54725 0.11269 1.079 1237.908 0.01829
-0.22987 0.19311 0.45845 0.54800 0.11457 0.897 1237.938 0.01832
-0.23018 0.19337 0.45907 0.54874 0.11645 1.111 1237.968 0.01834
-0.23049 0.19364 0.45969 0.54949 0.11833 0.892 1237.998 0.01837
-0.23081 0.19390 0.46032 0.55024 0.12021 1.087 1238.028 0.01839
-0.23112 0.19416 0.46094 0.55098 0.12209 0.947 1238.058 0.01842
-0.23143 0.19442 0.46156 0.55173 0.12397 0.915 1238.087 0.01844
-0.23174 0.19469 0.46219 0.55247 0.12585 0.960 1238.117 0.01847
-0.23206 0.19495 0.46281 0.55322 0.12773 1.070 1238.147 0.01849
-0.23237 0.19521 0.46343 0.55396 0.12961 0.862 1238.177 0.01851
-0.23268 0.19548 0.46406 0.55471 0.13149 0.954 1238.207 0.01854
-0.23299 0.19574 0.46468 0.55545 0.13338 0.944 1238.237 0.01856
-0.23331 0.19600 0.46531 0.55620 0.13526 0.952 1238.267 0.01859
-0.23362 0.19626 0.46593 0.55695 0.13714 0.869 1238.297 0.01861
-0.23393 0.19653 0.46655 0.55769 0.13902 0.882 1238.327 0.01864
-0.23425 0.19679 0.46718 0.55844 0.14090 0.931 1238.356 0.01866
-0.23456 0.19705 0.46780 0.55918 0.14278 0.945 1238.386 0.01869
-0.23487 0.19732 0.46843 0.55993 0.14466 0.890 1238.416 0.01871
-0.23518 0.19758 0.46905 0.56067 0.14654 0.884 1238.446 0.01874
-0.23550 0.19784 0.46967 0.56142 0.14843 0.847 1238.476 0.01876
-0.23581 0.19810 0.47030 0.56217 0.15031 1.045 1238.506 0.01878
-0.23612 0.19837 0.47092 0.56291 0.15219 0.786 1238.536 0.01881
-0.23644 0.19863 0.47155 0.56366 0.15407 0.823 1238.566 0.01883
-0.23675 0.19889 0.47217 0.56440 0.15595 0.882 1238.595 0.01886
-0.23706 0.19916 0.47279 0.56515 0.15783 0.932 1238.625 0.01888
-0.23737 0.19942 0.47342 0.56590 0.15972 0.854 1238.655 0.01891
-0.23769 0.19968 0.47404 0.56664 0.16160 0.858 1238.685 0.01893
-0.23800 0.19994 0.47467 0.56739 0.16348 0.890 1238.715 0.01896
-0.23831 0.20021 0.47529 0.56813 0.16536 0.953 1238.745 0.01898
-0.23863 0.20047 0.47591 0.56888 0.16724 0.957 1238.775 0.01901
-0.23894 0.20073 0.47654 0.56963 0.16913 0.966 1238.805 0.01903
-0.23925 0.20100 0.47716 0.57037 0.17101 1.029 1238.834 0.01905
-0.23957 0.20126 0.47779 0.57112 0.17289 1.028 1238.864 0.01908
-0.23988 0.20152 0.47841 0.57186 0.17477 0.982 1238.894 0.01910
-0.24019 0.20178 0.47904 0.57261 0.17665 1.033 1238.924 0.01913
-0.24050 0.20205 0.47966 0.57336 0.17854 0.955 1238.954 0.01915
-0.24082 0.20231 0.48028 0.57410 0.18042 1.036 1238.984 0.01918
-0.24113 0.20257 0.48091 0.57485 0.18230 0.972 1239.014 0.01920
-0.24144 0.20284 0.48153 0.57560 0.18419 1.022 1239.044 0.01923
-0.24176 0.20310 0.48216 0.57634 0.18607 0.944 1239.073 0.01925
-0.24207 0.20336 0.48278 0.57709 0.18795 1.003 1239.103 0.01928
-0.24238 0.20363 0.48341 0.57784 0.18983 0.861 1239.133 0.01930
-0.24270 0.20389 0.48403 0.57858 0.19172 0.951 1239.163 0.01933
-0.24301 0.20415 0.48465 0.57933 0.19360 1.037 1239.193 0.01935
-0.24332 0.20441 0.48528 0.58007 0.19548 0.792 1239.223 0.01937
-0.24364 0.20468 0.48590 0.58082 0.19737 0.968 1239.253 0.01940
-0.24395 0.20494 0.48653 0.58157 0.19925 0.964 1239.283 0.01942
-0.24426 0.20520 0.48715 0.58231 0.20113 0.818 1239.313 0.01945
-0.24457 0.20547 0.48778 0.58306 0.20302 0.955 1239.342 0.01947
-0.24489 0.20573 0.48840 0.58381 0.20490 1.036 1239.372 0.01950
-0.24520 0.20599 0.48903 0.58455 0.20678 1.018 1239.402 0.01952
-0.24551 0.20626 0.48965 0.58530 0.20867 1.057 1239.432 0.01955
-0.24583 0.20652 0.49028 0.58605 0.21055 0.984 1239.462 0.01957
-0.24614 0.20678 0.49090 0.58679 0.21243 1.088 1239.492 0.01960
-0.24645 0.20705 0.49153 0.58754 0.21432 0.898 1239.522 0.01962
-0.24677 0.20731 0.49215 0.58829 0.21620 0.988 1239.552 0.01964
-0.24708 0.20757 0.49278 0.58904 0.21809 0.978 1239.581 0.01967
-0.24739 0.20784 0.49340 0.58978 0.21997 1.033 1239.611 0.01969
-0.24771 0.20810 0.49402 0.59053 0.22185 0.964 1239.641 0.01972
-0.24802 0.20836 0.49465 0.59128 0.22374 0.960 1239.671 0.01974
-0.24833 0.20862 0.49527 0.59202 0.22562 0.887 1239.701 0.01977
-0.24865 0.20889 0.49590 0.59277 0.22751 0.810 1239.731 0.01979
-0.24896 0.20915 0.49652 0.59352 0.22939 0.991 1239.761 0.01982
-0.24927 0.20941 0.49715 0.59426 0.23128 0.950 1239.791 0.01984
-0.24959 0.20968 0.49777 0.59501 0.23316 0.828 1239.820 0.01987
-0.24990 0.20994 0.49840 0.59576 0.23504 1.008 1239.850 0.01989
-0.25021 0.21020 0.49902 0.59650 0.23693 0.958 1239.880 0.01992
-0.25053 0.21047 0.49965 0.59725 0.23881 0.958 1239.910 0.01994
-0.25084 0.21073 0.50027 0.59800 0.24070 1.097 1239.940 0.01996
-0.25115 0.21099 0.50090 0.59875 0.24258 0.885 1239.970 0.01999
-0.25147 0.21126 0.50152 0.59949 0.24447 0.903 1240.000 0.02001
-0.25178 0.21152 0.50215 0.60024 0.24635 0.962 1240.030 0.02004
-0.25209 0.21178 0.50277 0.60099 0.24824 0.882 1240.059 0.02006
-0.25241 0.21205 0.50340 0.60174 0.25012 0.957 1240.089 0.02009
-0.25272 0.21231 0.50402 0.60248 0.25201 1.091 1240.119 0.02011
-0.25303 0.21257 0.50465 0.60323 0.25389 0.955 1240.149 0.02014
-0.25335 0.21284 0.50528 0.60398 0.25578 0.997 1240.179 0.02016
-0.25366 0.21310 0.50590 0.60472 0.25766 1.015 1240.209 0.02019
-0.25398 0.21336 0.50653 0.60547 0.25955 0.940 1240.239 0.02021
-0.25429 0.21363 0.50715 0.60622 0.26144 0.906 1240.269 0.02023
-0.25460 0.21389 0.50778 0.60697 0.26332 0.974 1240.299 0.02026
-0.25492 0.21415 0.50840 0.60771 0.26521 0.963 1240.328 0.02028
-0.25523 0.21442 0.50903 0.60846 0.26709 0.981 1240.358 0.02031
-0.25554 0.21468 0.50965 0.60921 0.26898 1.056 1240.388 0.02033
-0.25586 0.21494 0.51028 0.60996 0.27086 0.949 1240.418 0.02036
-0.25617 0.21521 0.51090 0.61070 0.27275 0.970 1240.448 0.02038
-0.25648 0.21547 0.51153 0.61145 0.27464 1.060 1240.478 0.02041
-0.25680 0.21574 0.51215 0.61220 0.27652 1.068 1240.508 0.02043
-0.25711 0.21600 0.51278 0.61295 0.27841 1.033 1240.538 0.02046
-0.25742 0.21626 0.51341 0.61370 0.28029 0.997 1240.567 0.02048
-0.25774 0.21653 0.51403 0.61444 0.28218 1.015 1240.597 0.02050
-0.25805 0.21679 0.51466 0.61519 0.28407 0.912 1240.627 0.02053
-0.25837 0.21705 0.51528 0.61594 0.28595 0.947 1240.657 0.02055
-0.25868 0.21732 0.51591 0.61669 0.28784 0.992 1240.687 0.02058
-0.25899 0.21758 0.51653 0.61743 0.28973 1.086 1240.717 0.02060
-0.25931 0.21784 0.51716 0.61818 0.29161 0.924 1240.747 0.02063
-0.25962 0.21811 0.51778 0.61893 0.29350 0.880 1240.777 0.02065
-0.25993 0.21837 0.51841 0.61968 0.29539 1.045 1240.806 0.02068
-0.26025 0.21863 0.51904 0.62043 0.29727 0.946 1240.836 0.02070
-0.26056 0.21890 0.51966 0.62117 0.29916 0.955 1240.866 0.02073
-0.26088 0.21916 0.52029 0.62192 0.30105 0.950 1240.896 0.02075
-0.26119 0.21942 0.52091 0.62267 0.30293 1.084 1240.926 0.02078
-0.26150 0.21969 0.52154 0.62342 0.30482 0.955 1240.956 0.02080
-0.26182 0.21995 0.52216 0.62417 0.30671 0.995 1240.986 0.02082
-0.26213 0.22022 0.52279 0.62491 0.30859 0.959 1241.016 0.02085
-0.26244 0.22048 0.52342 0.62566 0.31048 1.039 1241.045 0.02087
-0.26276 0.22074 0.52404 0.62641 0.31237 1.066 1241.075 0.02090
-0.26307 0.22101 0.52467 0.62716 0.31426 1.042 1241.105 0.02092
-0.26339 0.22127 0.52529 0.62791 0.31614 0.975 1241.135 0.02095
-0.26370 0.22153 0.52592 0.62866 0.31803 1.060 1241.165 0.02097
-0.26401 0.22180 0.52655 0.62940 0.31992 1.096 1241.195 0.02100
-0.26433 0.22206 0.52717 0.63015 0.32181 0.980 1241.225 0.02102
-0.26464 0.22233 0.52780 0.63090 0.32369 1.051 1241.255 0.02105
-0.26496 0.22259 0.52842 0.63165 0.32558 1.069 1241.285 0.02107
-0.26527 0.22285 0.52905 0.63240 0.32747 1.123 1241.314 0.02109
-0.26558 0.22312 0.52968 0.63315 0.32936 0.989 1241.344 0.02112
-0.26590 0.22338 0.53030 0.63389 0.33125 1.016 1241.374 0.02114
-0.26621 0.22364 0.53093 0.63464 0.33313 0.989 1241.404 0.02117
-0.26653 0.22391 0.53156 0.63539 0.33502 0.957 1241.434 0.02119
-0.26684 0.22417 0.53218 0.63614 0.33691 1.011 1241.464 0.02122
-0.26715 0.22443 0.53281 0.63689 0.33880 1.007 1241.494 0.02124
-0.26747 0.22470 0.53343 0.63764 0.34069 1.065 1241.524 0.02127
-0.26778 0.22496 0.53406 0.63838 0.34258 1.128 1241.553 0.02129
-0.26810 0.22523 0.53469 0.63913 0.34446 1.029 1241.583 0.02132
-0.26841 0.22549 0.53531 0.63988 0.34635 0.949 1241.613 0.02134
-0.26872 0.22575 0.53594 0.64063 0.34824 1.021 1241.643 0.02137
-0.26904 0.22602 0.53657 0.64138 0.35013 0.923 1241.673 0.02139
-0.26935 0.22628 0.53719 0.64213 0.35202 1.034 1241.703 0.02141
-0.26967 0.22655 0.53782 0.64288 0.35391 0.918 1241.733 0.02144
-0.26998 0.22681 0.53844 0.64363 0.35580 0.923 1241.763 0.02146
-0.27029 0.22707 0.53907 0.64437 0.35769 0.892 1241.792 0.02149
-0.27061 0.22734 0.53970 0.64512 0.35957 0.963 1241.822 0.02151
-0.27092 0.22760 0.54032 0.64587 0.36146 0.905 1241.852 0.02154
-0.27124 0.22786 0.54095 0.64662 0.36335 0.954 1241.882 0.02156
-0.27155 0.22813 0.54158 0.64737 0.36524 1.155 1241.912 0.02159
-0.27186 0.22839 0.54220 0.64812 0.36713 0.985 1241.942 0.02161
-0.27218 0.22866 0.54283 0.64887 0.36902 1.016 1241.972 0.02164
-0.27249 0.22892 0.54346 0.64962 0.37091 1.128 1242.002 0.02166
-0.27281 0.22918 0.54408 0.65037 0.37280 0.972 1242.031 0.02168
-0.27312 0.22945 0.54471 0.65111 0.37469 0.977 1242.061 0.02171
-0.27344 0.22971 0.54534 0.65186 0.37658 1.075 1242.091 0.02173
-0.27375 0.22998 0.54596 0.65261 0.37847 1.084 1242.121 0.02176
-0.27406 0.23024 0.54659 0.65336 0.38036 1.057 1242.151 0.02178
-0.27438 0.23050 0.54722 0.65411 0.38225 1.075 1242.181 0.02181
-0.27469 0.23077 0.54784 0.65486 0.38414 1.110 1242.211 0.02183
-0.27501 0.23103 0.54847 0.65561 0.38603 0.972 1242.241 0.02186
-0.27532 0.23130 0.54910 0.65636 0.38792 1.052 1242.271 0.02188
-0.27564 0.23156 0.54972 0.65711 0.38981 0.994 1242.300 0.02191
-0.27595 0.23182 0.55035 0.65786 0.39170 0.989 1242.330 0.02193
-0.27626 0.23209 0.55098 0.65861 0.39359 0.990 1242.360 0.02196
-0.27658 0.23235 0.55160 0.65936 0.39548 0.913 1242.390 0.02198
-0.27689 0.23262 0.55223 0.66011 0.39737 0.950 1242.420 0.02200
-0.27721 0.23288 0.55286 0.66085 0.39926 0.807 1242.450 0.02203
-0.27752 0.23314 0.55348 0.66160 0.40115 0.958 1242.480 0.02205
-0.27784 0.23341 0.55411 0.66235 0.40304 0.847 1242.510 0.02208
-0.27815 0.23367 0.55474 0.66310 0.40493 0.837 1242.539 0.02210
-0.27846 0.23394 0.55537 0.66385 0.40682 0.873 1242.569 0.02213
-0.27878 0.23420 0.55599 0.66460 0.40871 0.931 1242.599 0.02215
-0.27909 0.23447 0.55662 0.66535 0.41060 1.057 1242.629 0.02218
-0.27941 0.23473 0.55725 0.66610 0.41249 0.889 1242.659 0.02220
-0.27972 0.23499 0.55787 0.66685 0.41438 0.916 1242.689 0.02223
-0.28004 0.23526 0.55850 0.66760 0.41628 0.896 1242.719 0.02225
-0.28035 0.23552 0.55913 0.66835 0.41817 1.033 1242.749 0.02227
-0.28067 0.23579 0.55976 0.66910 0.42006 1.118 1242.778 0.02230
-0.28098 0.23605 0.56038 0.66985 0.42195 1.031 1242.808 0.02232
-0.28129 0.23631 0.56101 0.67060 0.42384 0.904 1242.838 0.02235
-0.28161 0.23658 0.56164 0.67135 0.42573 1.043 1242.868 0.02237
-0.28192 0.23684 0.56226 0.67210 0.42762 1.042 1242.898 0.02240
-0.28224 0.23711 0.56289 0.67285 0.42951 1.068 1242.928 0.02242
-0.28255 0.23737 0.56352 0.67360 0.43141 1.044 1242.958 0.02245
-0.28287 0.23764 0.56415 0.67435 0.43330 1.082 1242.988 0.02247
-0.28318 0.23790 0.56477 0.67510 0.43519 0.961 1243.017 0.02250
-0.28350 0.23816 0.56540 0.67585 0.43708 1.063 1243.047 0.02252
-0.28381 0.23843 0.56603 0.67660 0.43897 1.032 1243.077 0.02254
-0.28413 0.23869 0.56666 0.67735 0.44087 0.978 1243.107 0.02257
-0.28444 0.23896 0.56728 0.67810 0.44276 0.988 1243.137 0.02259
-0.28475 0.23922 0.56791 0.67885 0.44465 0.891 1243.167 0.02262
-0.28507 0.23949 0.56854 0.67960 0.44654 0.964 1243.197 0.02264
-0.28538 0.23975 0.56917 0.68035 0.44843 1.031 1243.227 0.02267
-0.28570 0.24001 0.56979 0.68110 0.45033 0.964 1243.257 0.02269
-0.28601 0.24028 0.57042 0.68185 0.45222 0.973 1243.286 0.02272
-0.28633 0.24054 0.57105 0.68260 0.45411 1.072 1243.316 0.02274
-0.28664 0.24081 0.57168 0.68335 0.45600 0.965 1243.346 0.02277
-0.28696 0.24107 0.57230 0.68410 0.45790 0.884 1243.376 0.02279
-0.28727 0.24134 0.57293 0.68485 0.45979 1.023 1243.406 0.02282
-0.28759 0.24160 0.57356 0.68560 0.46168 1.018 1243.436 0.02284
-0.28790 0.24187 0.57419 0.68635 0.46357 1.005 1243.466 0.02286
-0.28822 0.24213 0.57481 0.68710 0.46547 1.050 1243.496 0.02289
-0.28853 0.24239 0.57544 0.68785 0.46736 1.041 1243.525 0.02291
-0.28885 0.24266 0.57607 0.68860 0.46925 0.992 1243.555 0.02294
-0.28916 0.24292 0.57670 0.68935 0.47114 0.970 1243.585 0.02296
-0.28947 0.24319 0.57733 0.69010 0.47304 1.046 1243.615 0.02299
-0.28979 0.24345 0.57795 0.69085 0.47493 0.947 1243.645 0.02301
-0.29010 0.24372 0.57858 0.69160 0.47682 0.952 1243.675 0.02304
-0.29042 0.24398 0.57921 0.69235 0.47872 0.925 1243.705 0.02306
-0.29073 0.24425 0.57984 0.69310 0.48061 1.118 1243.735 0.02309
-0.29105 0.24451 0.58046 0.69385 0.48250 0.970 1243.764 0.02311
-0.29136 0.24477 0.58109 0.69461 0.48440 0.956 1243.794 0.02313
-0.29168 0.24504 0.58172 0.69536 0.48629 0.952 1243.824 0.02316
-0.29199 0.24530 0.58235 0.69611 0.48818 0.907 1243.854 0.02318
-0.29231 0.24557 0.58298 0.69686 0.49008 1.065 1243.884 0.02321
-0.29262 0.24583 0.58360 0.69761 0.49197 1.033 1243.914 0.02323
-0.29294 0.24610 0.58423 0.69836 0.49387 0.997 1243.944 0.02326
-0.29325 0.24636 0.58486 0.69911 0.49576 1.015 1243.974 0.02328
-0.29357 0.24663 0.58549 0.69986 0.49765 0.980 1244.003 0.02331
-0.29388 0.24689 0.58612 0.70061 0.49955 1.119 1244.033 0.02333
-0.29420 0.24716 0.58675 0.70136 0.50144 0.975 1244.063 0.02336
-0.29451 0.24742 0.58737 0.70211 0.50334 1.012 1244.093 0.02338
-0.29483 0.24768 0.58800 0.70286 0.50523 1.020 1244.123 0.02341
-0.29514 0.24795 0.58863 0.70361 0.50712 0.953 1244.153 0.02343
-0.29546 0.24821 0.58926 0.70437 0.50902 1.016 1244.183 0.02345
-0.29577 0.24848 0.58989 0.70512 0.51091 0.913 1244.213 0.02348
-0.29609 0.24874 0.59051 0.70587 0.51281 1.132 1244.243 0.02350
-0.29640 0.24901 0.59114 0.70662 0.51470 0.940 1244.272 0.02353
-0.29672 0.24927 0.59177 0.70737 0.51660 0.949 1244.302 0.02355
-0.29703 0.24954 0.59240 0.70812 0.51849 0.931 1244.332 0.02358
-0.29735 0.24980 0.59303 0.70887 0.52039 0.950 1244.362 0.02360
-0.29766 0.25007 0.59366 0.70962 0.52228 1.044 1244.392 0.02363
-0.29798 0.25033 0.59428 0.71037 0.52418 0.932 1244.422 0.02365
-0.29829 0.25060 0.59491 0.71112 0.52607 0.963 1244.452 0.02368
-0.29861 0.25086 0.59554 0.71188 0.52797 1.017 1244.482 0.02370
-0.29892 0.25113 0.59617 0.71263 0.52986 1.053 1244.511 0.02372
-0.29924 0.25139 0.59680 0.71338 0.53176 1.040 1244.541 0.02375
-0.29955 0.25165 0.59743 0.71413 0.53365 1.004 1244.571 0.02377
-0.29987 0.25192 0.59806 0.71488 0.53555 0.954 1244.601 0.02380
-0.30018 0.25218 0.59868 0.71563 0.53744 0.995 1244.631 0.02382
-0.30050 0.25245 0.59931 0.71638 0.53934 0.888 1244.661 0.02385
-0.30081 0.25271 0.59994 0.71714 0.54123 0.990 1244.691 0.02387
-0.30113 0.25298 0.60057 0.71789 0.54313 0.919 1244.721 0.02390
-0.30144 0.25324 0.60120 0.71864 0.54502 0.851 1244.750 0.02392
-0.30176 0.25351 0.60183 0.71939 0.54692 0.924 1244.780 0.02395
-0.30208 0.25377 0.60246 0.72014 0.54882 0.978 1244.810 0.02397
-0.30239 0.25404 0.60308 0.72089 0.55071 1.077 1244.840 0.02400
-0.30271 0.25430 0.60371 0.72164 0.55261 0.947 1244.870 0.02402
-0.30302 0.25457 0.60434 0.72240 0.55450 1.105 1244.900 0.02404
-0.30334 0.25483 0.60497 0.72315 0.55640 1.020 1244.930 0.02407
-0.30365 0.25510 0.60560 0.72390 0.55829 0.943 1244.960 0.02409
-0.30397 0.25536 0.60623 0.72465 0.56019 0.979 1244.989 0.02412
-0.30428 0.25563 0.60686 0.72540 0.56209 0.947 1245.019 0.02414
-0.30460 0.25589 0.60749 0.72615 0.56398 0.979 1245.049 0.02417
-0.30491 0.25616 0.60812 0.72691 0.56588 0.961 1245.079 0.02419
-0.30523 0.25642 0.60874 0.72766 0.56778 1.150 1245.109 0.02422
-0.30554 0.25669 0.60937 0.72841 0.56967 1.002 1245.139 0.02424
-0.30586 0.25695 0.61000 0.72916 0.57157 0.931 1245.169 0.02427
-0.30617 0.25722 0.61063 0.72991 0.57347 1.102 1245.199 0.02429
-0.30649 0.25748 0.61126 0.73066 0.57536 0.893 1245.229 0.02431
-0.30681 0.25775 0.61189 0.73142 0.57726 1.094 1245.258 0.02434
-0.30712 0.25801 0.61252 0.73217 0.57916 1.027 1245.288 0.02436
-0.30744 0.25828 0.61315 0.73292 0.58105 0.975 1245.318 0.02439
-0.30775 0.25854 0.61378 0.73367 0.58295 1.009 1245.348 0.02441
-0.30807 0.25881 0.61441 0.73442 0.58485 1.151 1245.378 0.02444
