x y z dist_scaled dist_frac flux_norm wavelength redshift
-0.18811 0.21690 0.41250 0.50258 0.00000 0.854 1236.115 0.01682
-0.18839 0.21722 0.41311 0.50333 0.00188 1.119 1236.145 0.01684
-0.18866 0.21754 0.41372 0.50407 0.00375 0.973 1236.175 0.01687
-0.18894 0.21786 0.41433 0.50481 0.00563 1.175 1236.205 0.01689
-0.18922 0.21818 0.41495 0.50556 0.00751 1.101 1236.235 0.01692
-0.18950 0.21851 0.41556 0.50630 0.00938 1.091 1236.265 0.01694
-0.18978 0.21883 0.41617 0.50705 0.01126 0.951 1236.295 0.01697
-0.19006 0.21915 0.41678 0.50779 0.01313 0.684 1236.325 0.01699
-0.19033 0.21947 0.41739 0.50853 0.01501 0.934 1236.355 0.01701
-0.19061 0.21979 0.41800 0.50928 0.01689 1.123 1236.384 0.01704
-0.19089 0.22011 0.41861 0.51002 0.01876 0.733 1236.414 0.01706
-0.19117 0.22043 0.41922 0.51077 0.02064 1.047 1236.444 0.01709
-0.19145 0.22075 0.41983 0.51151 0.02252 1.430 1236.474 0.01711
-0.19173 0.22107 0.42044 0.51225 0.02440 1.232 1236.504 0.01714
-0.19201 0.22140 0.42105 0.51300 0.02627 0.911 1236.534 0.01716
-0.19228 0.22172 0.42166 0.51374 0.02815 0.846 1236.564 0.01719
-0.19256 0.22204 0.42227 0.51449 0.03003 0.836 1236.594 0.01721
-0.19284 0.22236 0.42288 0.51523 0.03190 1.144 1236.623 0.01724
-0.19312 0.22268 0.42349 0.51597 0.03378 1.194 1236.653 0.01726
-0.19340 0.22300 0.42411 0.51672 0.03566 1.499 1236.683 0.01729
-0.19368 0.22332 0.42472 0.51746 0.03754 1.369 1236.713 0.01731
-0.19395 0.22364 0.42533 0.51821 0.03941 0.818 1236.743 0.01733
-0.19423 0.22397 0.42594 0.51895 0.04129 0.811 1236.773 0.01736
-0.19451 0.22429 0.42655 0.51970 0.04317 0.622 1236.803 0.01738
-0.19479 0.22461 0.42716 0.52044 0.04505 1.224 1236.833 0.01741
-0.19507 0.22493 0.42777 0.52118 0.04692 0.919 1236.862 0.01743
-0.19535 0.22525 0.42838 0.52193 0.04880 0.974 1236.892 0.01746
-0.19563 0.22557 0.42899 0.52267 0.05068 0.909 1236.922 0.01748
-0.19591 0.22589 0.42960 0.52342 0.05256 0.788 1236.952 0.01751
-0.19618 0.22621 0.43021 0.52416 0.05444 1.320 1236.982 0.01753
-0.19646 0.22654 0.43083 0.52491 0.05631 0.739 1237.012 0.01756
-0.19674 0.22686 0.43144 0.52565 0.05819 1.556 1237.042 0.01758
-0.19702 0.22718 0.43205 0.52640 0.06007 1.016 1237.072 0.01760
-0.19730 0.22750 0.43266 0.52714 0.06195 0.816 1237.101 0.01763
-0.19758 0.22782 0.43327 0.52788 0.06383 0.826 1237.131 0.01765
-0.19786 0.22814 0.43388 0.52863 0.06571 1.459 1237.161 0.01768
-0.19813 0.22846 0.43449 0.52937 0.06758 1.024 1237.191 0.01770
-0.19841 0.22878 0.43510 0.53012 0.06946 1.509 1237.221 0.01773
-0.19869 0.22911 0.43572 0.53086 0.07134 0.984 1237.251 0.01775
-0.19897 0.22943 0.43633 0.53161 0.07322 1.461 1237.281 0.01778
-0.19925 0.22975 0.43694 0.53235 0.07510 0.953 1237.311 0.01780
-0.19953 0.23007 0.43755 0.53310 0.07698 0.894 1237.341 0.01783
-0.19981 0.23039 0.43816 0.53384 0.07886 0.871 1237.370 0.01785
-0.20009 0.23071 0.43877 0.53459 0.08074 0.939 1237.400 0.01788
-0.20036 0.23103 0.43938 0.53533 0.08261 0.527 1237.430 0.01790
-0.20064 0.23136 0.43999 0.53608 0.08449 1.168 1237.460 0.01792
-0.20092 0.23168 0.44061 0.53682 0.08637 0.689 1237.490 0.01795
-0.20120 0.23200 0.44122 0.53757 0.08825 1.073 1237.520 0.01797
-0.20148 0.23232 0.44183 0.53831 0.09013 1.240 1237.550 0.01800
-0.20176 0.23264 0.44244 0.53906 0.09201 1.177 1237.580 0.01802
-0.20204 0.23296 0.44305 0.53980 0.09389 1.400 1237.609 0.01805
-0.20232 0.23329 0.44366 0.54055 0.09577 0.630 1237.639 0.01807
-0.20260 0.23361 0.44428 0.54129 0.09765 0.736 1237.669 0.01810
-0.20287 0.23393 0.44489 0.54204 0.09953 1.221 1237.699 0.01812
-0.20315 0.23425 0.44550 0.54278 0.10141 1.002 1237.729 0.01815
-0.20343 0.23457 0.44611 0.54353 0.10329 1.432 1237.759 0.01817
-0.20371 0.23489 0.44672 0.54427 0.10517 1.127 1237.789 0.01819
-0.20399 0.23522 0.44733 0.54502 0.10705 1.298 1237.819 0.01822
-0.20427 0.23554 0.44794 0.54576 0.10893 1.093 1237.848 0.01824
-0.20455 0.23586 0.44856 0.54651 0.11081 0.987 1237.878 0.01827
-0.20483 0.23618 0.44917 0.54725 0.11269 0.705 1237.908 0.01829
-0.20511 0.23650 0.44978 0.54800 0.11457 0.995 1237.938 0.01832
-0.20538 0.23682 0.45039 0.54874 0.11645 0.255 1237.968 0.01834
-0.20566 0.23715 0.45100 0.54949 0.11833 0.755 1237.998 0.01837
-0.20594 0.23747 0.45162 0.55024 0.12021 1.053 1238.028 0.01839
-0.20622 0.23779 0.45223 0.55098 0.12209 1.094 1238.058 0.01842
-0.20650 0.23811 0.45284 0.55173 0.12397 0.772 1238.087 0.01844
-0.20678 0.23843 0.45345 0.55247 0.12585 1.336 1238.117 0.01847
-0.20706 0.23875 0.45406 0.55322 0.12773 1.225 1238.147 0.01849
-0.20734 0.23908 0.45467 0.55396 0.12961 1.216 1238.177 0.01851
-0.20762 0.23940 0.45529 0.55471 0.13149 1.303 1238.207 0.01854
-0.20790 0.23972 0.45590 0.55545 0.13338 0.915 1238.237 0.01856
-0.20818 0.24004 0.45651 0.55620 0.13526 1.122 1238.267 0.01859
-0.20845 0.24036 0.45712 0.55695 0.13714 0.760 1238.297 0.01861
-0.20873 0.24068 0.45773 0.55769 0.13902 0.858 1238.327 0.01864
-0.20901 0.24101 0.45835 0.55844 0.14090 0.754 1238.356 0.01866
-0.20929 0.24133 0.45896 0.55918 0.14278 0.704 1238.386 0.01869
-0.20957 0.24165 0.45957 0.55993 0.14466 1.063 1238.416 0.01871
-0.20985 0.24197 0.46018 0.56067 0.14654 1.113 1238.446 0.01874
-0.21013 0.24229 0.46080 0.56142 0.14843 0.904 1238.476 0.01876
-0.21041 0.24262 0.46141 0.56217 0.15031 1.104 1238.506 0.01878
-0.21069 0.24294 0.46202 0.56291 0.15219 0.898 1238.536 0.01881
-0.21097 0.24326 0.46263 0.56366 0.15407 0.998 1238.566 0.01883
-0.21125 0.24358 0.46324 0.56440 0.15595 0.745 1238.595 0.01886
-0.21152 0.24390 0.46386 0.56515 0.15783 1.304 1238.625 0.01888
-0.21180 0.24423 0.46447 0.56590 0.15972 0.899 1238.655 0.01891
-0.21208 0.24455 0.46508 0.56664 0.16160 0.899 1238.685 0.01893
-0.21236 0.24487 0.46569 0.56739 0.16348 0.694 1238.715 0.01896
-0.21264 0.24519 0.46631 0.56813 0.16536 0.899 1238.745 0.01898
-0.21292 0.24551 0.46692 0.56888 0.16724 0.840 1238.775 0.01901
-0.21320 0.24584 0.46753 0.56963 0.16913 0.943 1238.805 0.01903
-0.21348 0.24616 0.46814 0.57037 0.17101 0.633 1238.834 0.01905
-0.21376 0.24648 0.46876 0.57112 0.17289 0.834 1238.864 0.01908
-0.21404 0.24680 0.46937 0.57186 0.17477 1.184 1238.894 0.01910
-0.21432 0.24712 0.46998 0.57261 0.17665 1.140 1238.924 0.01913
-0.21460 0.24745 0.47059 0.57336 0.17854 1.190 1238.954 0.01915
-0.21488 0.24777 0.47121 0.57410 0.18042 1.174 1238.984 0.01918
-0.21516 0.24809 0.47182 0.57485 0.18230 0.881 1239.014 0.01920
-0.21543 0.24841 0.47243 0.57560 0.18419 0.675 1239.044 0.01923
-0.21571 0.24873 0.47304 0.57634 0.18607 1.130 1239.073 0.01925
-0.21599 0.24906 0.47366 0.57709 0.18795 0.627 1239.103 0.01928
-0.21627 0.24938 0.47427 0.57784 0.18983 0.923 1239.133 0.01930
-0.21655 0.24970 0.47488 0.57858 0.19172 0.524 1239.163 0.01933
-0.21683 0.25002 0.47549 0.57933 0.19360 0.872 1239.193 0.01935
-0.21711 0.25034 0.47611 0.58007 0.19548 0.621 1239.223 0.01937
-0.21739 0.25067 0.47672 0.58082 0.19737 1.076 1239.253 0.01940
-0.21767 0.25099 0.47733 0.58157 0.19925 0.925 1239.283 0.01942
-0.21795 0.25131 0.47794 0.58231 0.20113 0.975 1239.313 0.01945
-0.21823 0.25163 0.47856 0.58306 0.20302 1.027 1239.342 0.01947
-0.21851 0.25196 0.47917 0.58381 0.20490 0.976 1239.372 0.01950
-0.21879 0.25228 0.47978 0.58455 0.20678 0.926 1239.402 0.01952
-0.21907 0.25260 0.48040 0.58530 0.20867 0.777 1239.432 0.01955
-0.21935 0.25292 0.48101 0.58605 0.21055 1.026 1239.462 0.01957
-0.21963 0.25324 0.48162 0.58679 0.21243 1.025 1239.492 0.01960
-0.21991 0.25357 0.48223 0.58754 0.21432 0.777 1239.522 0.01962
-0.22019 0.25389 0.48285 0.58829 0.21620 0.674 1239.552 0.01964
-0.22046 0.25421 0.48346 0.58904 0.21809 0.624 1239.581 0.01967
-0.22074 0.25453 0.48407 0.58978 0.21997 0.675 1239.611 0.01969
-0.22102 0.25486 0.48469 0.59053 0.22185 0.823 1239.641 0.01972
-0.22130 0.25518 0.48530 0.59128 0.22374 0.878 1239.671 0.01974
-0.22158 0.25550 0.48591 0.59202 0.22562 0.922 1239.701 0.01977
-0.22186 0.25582 0.48653 0.59277 0.22751 1.171 1239.731 0.01979
-0.22214 0.25615 0.48714 0.59352 0.22939 1.126 1239.761 0.01982
-0.22242 0.25647 0.48775 0.59426 0.23128 0.771 1239.791 0.01984
-0.22270 0.25679 0.48837 0.59501 0.23316 0.876 1239.820 0.01987
-0.22298 0.25711 0.48898 0.59576 0.23504 1.076 1239.850 0.01989
-0.22326 0.25744 0.48959 0.59650 0.23693 0.975 1239.880 0.01992
-0.22354 0.25776 0.49020 0.59725 0.23881 0.578 1239.910 0.01994
-0.22382 0.25808 0.49082 0.59800 0.24070 0.974 1239.940 0.01996
-0.22410 0.25840 0.49143 0.59875 0.24258 0.923 1239.970 0.01999
-0.22438 0.25872 0.49204 0.59949 0.24447 0.979 1240.000 0.02001
-0.22466 0.25905 0.49266 0.60024 0.24635 0.774 1240.030 0.02004
-0.22494 0.25937 0.49327 0.60099 0.24824 0.896 1240.059 0.02006
-0.22522 0.25969 0.49388 0.60174 0.25012 0.958 1240.089 0.02009
-0.22550 0.26001 0.49450 0.60248 0.25201 1.160 1240.119 0.02011
-0.22578 0.26034 0.49511 0.60323 0.25389 0.906 1240.149 0.02014
-0.22606 0.26066 0.49572 0.60398 0.25578 0.821 1240.179 0.02016
-0.22634 0.26098 0.49634 0.60472 0.25766 0.937 1240.209 0.02019
-0.22662 0.26131 0.49695 0.60547 0.25955 0.590 1240.239 0.02021
-0.22690 0.26163 0.49756 0.60622 0.26144 0.939 1240.269 0.02023
-0.22718 0.26195 0.49818 0.60697 0.26332 0.901 1240.299 0.02026
-0.22746 0.26227 0.49879 0.60771 0.26521 1.117 1240.328 0.02028
-0.22774 0.26260 0.49941 0.60846 0.26709 0.973 1240.358 0.02031
-0.22802 0.26292 0.50002 0.60921 0.26898 0.643 1240.388 0.02033
-0.22830 0.26324 0.50063 0.60996 0.27086 1.148 1240.418 0.02036
-0.22858 0.26356 0.50125 0.61070 0.27275 0.926 1240.448 0.02038
-0.22886 0.26389 0.50186 0.61145 0.27464 1.211 1240.478 0.02041
-0.22913 0.26421 0.50247 0.61220 0.27652 1.226 1240.508 0.02043
-0.22941 0.26453 0.50309 0.61295 0.27841 0.838 1240.538 0.02046
-0.22969 0.26485 0.50370 0.61370 0.28029 0.836 1240.567 0.02048
-0.22997 0.26518 0.50431 0.61444 0.28218 0.987 1240.597 0.02050
-0.23025 0.26550 0.50493 0.61519 0.28407 1.141 1240.627 0.02053
-0.23053 0.26582 0.50554 0.61594 0.28595 1.190 1240.657 0.02055
-0.23081 0.26615 0.50616 0.61669 0.28784 0.835 1240.687 0.02058
-0.23109 0.26647 0.50677 0.61743 0.28973 1.092 1240.717 0.02060
-0.23137 0.26679 0.50738 0.61818 0.29161 1.244 1240.747 0.02063
-0.23165 0.26711 0.50800 0.61893 0.29350 1.141 1240.777 0.02065
-0.23193 0.26744 0.50861 0.61968 0.29539 0.839 1240.806 0.02068
-0.23221 0.26776 0.50923 0.62043 0.29727 1.098 1240.836 0.02070
-0.23249 0.26808 0.50984 0.62117 0.29916 1.095 1240.866 0.02073
-0.23277 0.26840 0.51045 0.62192 0.30105 0.740 1240.896 0.02075
-0.23305 0.26873 0.51107 0.62267 0.30293 0.433 1240.926 0.02078
-0.23333 0.26905 0.51168 0.62342 0.30482 1.310 1240.956 0.02080
-0.23361 0.26937 0.51229 0.62417 0.30671 1.360 1240.986 0.02082
-0.23389 0.26970 0.51291 0.62491 0.30859 0.948 1241.016 0.02085
-0.23417 0.27002 0.51352 0.62566 0.31048 1.309 1241.045 0.02087
-0.23445 0.27034 0.51414 0.62641 0.31237 0.742 1241.075 0.02090
-0.23473 0.27066 0.51475 0.62716 0.31426 0.690 1241.105 0.02092
-0.23501 0.27099 0.51537 0.62791 0.31614 1.003 1241.135 0.02095
-0.23529 0.27131 0.51598 0.62866 0.31803 1.104 1241.165 0.02097
-0.23557 0.27163 0.51659 0.62940 0.31992 0.692 1241.195 0.02100
-0.23585 0.27196 0.51721 0.63015 0.32181 1.006 1241.225 0.02102
-0.23613 0.27228 0.51782 0.63090 0.32369 0.802 1241.255 0.02105
-0.23641 0.27260 0.51844 0.63165 0.32558 1.319 1241.285 0.02107
-0.23669 0.27293 0.51905 0.63240 0.32747 0.541 1241.314 0.02109
-0.23697 0.27325 0.51966 0.63315 0.32936 0.748 1241.344 0.02112
-0.23725 0.27357 0.52028 0.63389 0.33125 1.381 1241.374 0.02114
-0.23753 0.27389 0.52089 0.63464 0.33313 1.011 1241.404 0.02117
-0.23781 0.27422 0.52151 0.63539 0.33502 0.965 1241.434 0.02119
-0.23809 0.27454 0.52212 0.63614 0.33691 1.122 1241.464 0.02122
-0.23837 0.27486 0.52274 0.63689 0.33880 0.968 1241.494 0.02124
-0.23866 0.27519 0.52335 0.63764 0.34069 0.915 1241.524 0.02127
-0.23894 0.27551 0.52397 0.63838 0.34258 1.072 1241.553 0.02129
-0.23922 0.27583 0.52458 0.63913 0.34446 0.865 1241.583 0.02132
-0.23950 0.27616 0.52519 0.63988 0.34635 1.077 1241.613 0.02134
-0.23978 0.27648 0.52581 0.64063 0.34824 0.761 1241.643 0.02137
-0.24006 0.27680 0.52642 0.64138 0.35013 0.981 1241.673 0.02139
-0.24034 0.27712 0.52704 0.64213 0.35202 0.872 1241.703 0.02141
-0.24062 0.27745 0.52765 0.64288 0.35391 0.716 1241.733 0.02144
-0.24090 0.27777 0.52827 0.64363 0.35580 0.879 1241.763 0.02146
-0.24118 0.27809 0.52888 0.64437 0.35769 0.827 1241.792 0.02149
-0.24146 0.27842 0.52950 0.64512 0.35957 0.884 1241.822 0.02151
-0.24174 0.27874 0.53011 0.64587 0.36146 1.043 1241.852 0.02154
-0.24202 0.27906 0.53073 0.64662 0.36335 0.889 1241.882 0.02156
-0.24230 0.27939 0.53134 0.64737 0.36524 1.208 1241.912 0.02159
-0.24258 0.27971 0.53195 0.64812 0.36713 0.943 1241.942 0.02161
-0.24286 0.28003 0.53257 0.64887 0.36902 0.517 1241.972 0.02164
-0.24314 0.28036 0.53318 0.64962 0.37091 1.112 1242.002 0.02166
-0.24342 0.28068 0.53380 0.65037 0.37280 1.114 1242.031 0.02168
-0.24370 0.28100 0.53441 0.65111 0.37469 1.388 1242.061 0.02171
-0.24398 0.28133 0.53503 0.65186 0.37658 0.738 1242.091 0.02173
-0.24426 0.28165 0.53564 0.65261 0.37847 0.633 1242.121 0.02176
-0.24454 0.28197 0.53626 0.65336 0.38036 1.073 1242.151 0.02178
-0.24482 0.28230 0.53687 0.65411 0.38225 1.127 1242.181 0.02181
-0.24510 0.28262 0.53749 0.65486 0.38414 1.078 1242.211 0.02183
-0.24538 0.28294 0.53810 0.65561 0.38603 0.866 1242.241 0.02186
-0.24566 0.28327 0.53872 0.65636 0.38792 0.866 1242.271 0.02188
-0.24594 0.28359 0.53933 0.65711 0.38981 0.811 1242.300 0.02191
-0.24622 0.28391 0.53995 0.65786 0.39170 1.310 1242.330 0.02193
-0.24650 0.28424 0.54056 0.65861 0.39359 0.868 1242.360 0.02196
-0.24678 0.28456 0.54118 0.65936 0.39548 0.980 1242.390 0.02198
-0.24706 0.28488 0.54179 0.66011 0.39737 1.092 1242.420 0.02200
-0.24735 0.28521 0.54241 0.66085 0.39926 1.321 1242.450 0.02203
-0.24763 0.28553 0.54302 0.66160 0.40115 1.098 1242.480 0.02205
-0.24791 0.28585 0.54364 0.66235 0.40304 1.039 1242.510 0.02208
-0.24819 0.28618 0.54425 0.66310 0.40493 0.764 1242.539 0.02210
-0.24847 0.28650 0.54487 0.66385 0.40682 1.049 1242.569 0.02213
-0.24875 0.28682 0.54548 0.66460 0.40871 0.937 1242.599 0.02215
-0.24903 0.28715 0.54610 0.66535 0.41060 1.335 1242.629 0.02218
-0.24931 0.28747 0.54671 0.66610 0.41249 1.337 1242.659 0.02220
-0.24959 0.28779 0.54733 0.66685 0.41438 2.058 1242.689 0.02223
-0.24987 0.28812 0.54794 0.66760 0.41628 0.905 1242.719 0.02225
-0.25015 0.28844 0.54856 0.66835 0.41817 1.068 1242.749 0.02227
-0.25043 0.28877 0.54918 0.66910 0.42006 0.904 1242.778 0.02230
-0.25071 0.28909 0.54979 0.66985 0.42195 1.048 1242.808 0.02232
-0.25099 0.28941 0.55041 0.67060 0.42384 0.893 1242.838 0.02235
-0.25127 0.28974 0.55102 0.67135 0.42573 1.737 1242.868 0.02237
-0.25155 0.29006 0.55164 0.67210 0.42762 0.956 1242.898 0.02240
-0.25183 0.29038 0.55225 0.67285 0.42951 1.242 1242.928 0.02242
-0.25212 0.29071 0.55287 0.67360 0.43141 1.633 1242.958 0.02245
-0.25240 0.29103 0.55348 0.67435 0.43330 1.445 1242.988 0.02247
-0.25268 0.29135 0.55410 0.67510 0.43519 1.352 1243.017 0.02250
-0.25296 0.29168 0.55471 0.67585 0.43708 1.099 1243.047 0.02252
-0.25324 0.29200 0.55533 0.67660 0.43897 1.017 1243.077 0.02254
-0.25352 0.29232 0.55595 0.67735 0.44087 1.087 1243.107 0.02257
-0.25380 0.29265 0.55656 0.67810 0.44276 1.117 1243.137 0.02259
-0.25408 0.29297 0.55718 0.67885 0.44465 0.974 1243.167 0.02262
-0.25436 0.29330 0.55779 0.67960 0.44654 0.799 1243.197 0.02264
-0.25464 0.29362 0.55841 0.68035 0.44843 1.034 1243.227 0.02267
-0.25492 0.29394 0.55902 0.68110 0.45033 0.861 1243.257 0.02269
-0.25520 0.29427 0.55964 0.68185 0.45222 0.747 1243.286 0.02272
-0.25548 0.29459 0.56025 0.68260 0.45411 1.052 1243.316 0.02274
-0.25576 0.29491 0.56087 0.68335 0.45600 1.234 1243.346 0.02277
-0.25605 0.29524 0.56149 0.68410 0.45790 0.937 1243.376 0.02279
-0.25633 0.29556 0.56210 0.68485 0.45979 1.119 1243.406 0.02282
-0.25661 0.29589 0.56272 0.68560 0.46168 0.458 1243.436 0.02284
-0.25689 0.29621 0.56333 0.68635 0.46357 1.125 1243.466 0.02286
-0.25717 0.29653 0.56395 0.68710 0.46547 1.007 1243.496 0.02289
-0.25745 0.29686 0.56457 0.68785 0.46736 1.436 1243.525 0.02291
-0.25773 0.29718 0.56518 0.68860 0.46925 1.015 1243.555 0.02294
-0.25801 0.29751 0.56580 0.68935 0.47114 0.711 1243.585 0.02296
-0.25829 0.29783 0.56641 0.69010 0.47304 0.653 1243.615 0.02299
-0.25857 0.29815 0.56703 0.69085 0.47493 1.025 1243.645 0.02301
-0.25885 0.29848 0.56764 0.69160 0.47682 0.594 1243.675 0.02304
-0.25913 0.29880 0.56826 0.69235 0.47872 1.399 1243.705 0.02306
-0.25942 0.29912 0.56888 0.69310 0.48061 1.158 1243.735 0.02309
-0.25970 0.29945 0.56949 0.69385 0.48250 1.407 1243.764 0.02311
-0.25998 0.29977 0.57011 0.69461 0.48440 1.160 1243.794 0.02313
-0.26026 0.30010 0.57073 0.69536 0.48629 0.854 1243.824 0.02316
-0.26054 0.30042 0.57134 0.69611 0.48818 0.728 1243.854 0.02318
-0.26082 0.30074 0.57196 0.69686 0.49008 0.606 1243.884 0.02321
-0.26110 0.30107 0.57257 0.69761 0.49197 0.670 1243.914 0.02323
-0.26138 0.30139 0.57319 0.69836 0.49387 0.609 1243.944 0.02326
-0.26166 0.30172 0.57381 0.69911 0.49576 0.674 1243.974 0.02328
-0.26194 0.30204 0.57442 0.69986 0.49765 0.358 1244.003 0.02331
-0.26223 0.30236 0.57504 0.70061 0.49955 0.867 1244.033 0.02333
-0.26251 0.30269 0.57565 0.70136 0.50144 0.423 1244.063 0.02336
-0.26279 0.30301 0.57627 0.70211 0.50334 0.615 1244.093 0.02338
-0.26307 0.30334 0.57689 0.70286 0.50523 0.622 1244.123 0.02341
-0.26335 0.30366 0.57750 0.70361 0.50712 0.689 1244.153 0.02343
-0.26363 0.30398 0.57812 0.70437 0.50902 0.625 1244.183 0.02345
-0.26391 0.30431 0.57874 0.70512 0.51091 0.627 1244.213 0.02348
-0.26419 0.30463 0.57935 0.70587 0.51281 0.300 1244.243 0.02350
-0.26447 0.30496 0.57997 0.70662 0.51470 0.429 1244.272 0.02353
-0.26475 0.30528 0.58059 0.70737 0.51660 0.496 1244.302 0.02355
-0.26504 0.30561 0.58120 0.70812 0.51849 0.760 1244.332 0.02358
-0.26532 0.30593 0.58182 0.70887 0.52039 0.235 1244.362 0.02360
-0.26560 0.30625 0.58243 0.70962 0.52228 0.767 1244.392 0.02363
-0.26588 0.30658 0.58305 0.71037 0.52418 0.437 1244.422 0.02365
-0.26616 0.30690 0.58367 0.71112 0.52607 0.372 1244.452 0.02368
-0.26644 0.30723 0.58428 0.71188 0.52797 0.237 1244.482 0.02370
-0.26672 0.30755 0.58490 0.71263 0.52986 0.572 1244.511 0.02372
-0.26700 0.30787 0.58552 0.71338 0.53176 0.506 1244.541 0.02375
-0.26729 0.30820 0.58613 0.71413 0.53365 0.708 1244.571 0.02377
-0.26757 0.30852 0.58675 0.71488 0.53555 0.645 1244.601 0.02380
-0.26785 0.30885 0.58737 0.71563 0.53744 1.054 1244.631 0.02382
-0.26813 0.30917 0.58798 0.71638 0.53934 0.717 1244.661 0.02385
-0.26841 0.30950 0.58860 0.71714 0.54123 0.859 1244.691 0.02387
-0.26869 0.30982 0.58922 0.71789 0.54313 0.861 1244.721 0.02390
-0.26897 0.31014 0.58983 0.71864 0.54502 0.522 1244.750 0.02392
-0.26925 0.31047 0.59045 0.71939 0.54692 1.008 1244.780 0.02395
-0.26954 0.31079 0.59107 0.72014 0.54882 0.529 1244.810 0.02397
-0.26982 0.31112 0.59169 0.72089 0.55071 1.502 1244.840 0.02400
-0.27010 0.31144 0.59230 0.72164 0.55261 1.298 1244.870 0.02402
-0.27038 0.31177 0.59292 0.72240 0.55450 0.744 1244.900 0.02404
-0.27066 0.31209 0.59354 0.72315 0.55640 1.305 1244.930 0.02407
-0.27094 0.31242 0.59415 0.72390 0.55829 0.888 1244.960 0.02409
-0.27122 0.31274 0.59477 0.72465 0.56019 1.174 1244.989 0.02412
-0.27150 0.31306 0.59539 0.72540 0.56209 0.545 1245.019 0.02414
-0.27179 0.31339 0.59600 0.72615 0.56398 1.181 1245.049 0.02417
-0.27207 0.31371 0.59662 0.72691 0.56588 0.688 1245.079 0.02419
-0.27235 0.31404 0.59724 0.72766 0.56778 0.904 1245.109 0.02422
-0.27263 0.31436 0.59785 0.72841 0.56967 0.977 1245.139 0.02424
-0.27291 0.31469 0.59847 0.72916 0.57157 1.192 1245.169 0.02427
-0.27319 0.31501 0.59909 0.72991 0.57347 0.840 1245.199 0.02429
-0.27347 0.31534 0.59971 0.73066 0.57536 1.635 1245.229 0.02431
-0.27376 0.31566 0.60032 0.73142 0.57726 0.700 1245.258 0.02434
-0.27404 0.31598 0.60094 0.73217 0.57916 1.015 1245.288 0.02436
-0.27432 0.31631 0.60156 0.73292 0.58105 0.877 1245.318 0.02439
-0.27460 0.31663 0.60217 0.73367 0.58295 1.049 1245.348 0.02441
-0.27488 0.31696 0.60279 0.73442 0.58485 0.723 1245.378 0.02444
