x y z dist_scaled dist_frac flux_norm wavelength redshift
-0.29342 -0.08954 0.39809 0.50258 0.00000 -1.309 1236.115 0.01682
-0.29386 -0.08967 0.39868 0.50333 0.00188 -7.210 1236.145 0.01684
-0.29429 -0.08980 0.39927 0.50407 0.00375 4.796 1236.175 0.01687
-0.29473 -0.08994 0.39986 0.50481 0.00563 -0.042 1236.205 0.01689
-0.29516 -0.09007 0.40045 0.50556 0.00751 -0.011 1236.235 0.01692
-0.29559 -0.09020 0.40104 0.50630 0.00938 0.917 1236.265 0.01694
-0.29603 -0.09033 0.40162 0.50705 0.01126 0.242 1236.295 0.01697
-0.29646 -0.09047 0.40221 0.50779 0.01313 0.985 1236.325 0.01699
-0.29690 -0.09060 0.40280 0.50853 0.01501 0.508 1236.355 0.01701
-0.29733 -0.09073 0.40339 0.50928 0.01689 1.170 1236.384 0.01704
-0.29777 -0.09086 0.40398 0.51002 0.01876 2.446 1236.414 0.01706
-0.29820 -0.09100 0.40457 0.51077 0.02064 1.625 1236.444 0.01709
-0.29863 -0.09113 0.40516 0.51151 0.02252 0.845 1236.474 0.01711
-0.29907 -0.09126 0.40575 0.51225 0.02440 0.201 1236.504 0.01714
-0.29950 -0.09139 0.40634 0.51300 0.02627 0.100 1236.534 0.01716
-0.29994 -0.09153 0.40693 0.51374 0.02815 0.172 1236.564 0.01719
-0.30037 -0.09166 0.40752 0.51449 0.03003 0.239 1236.594 0.01721
-0.30081 -0.09179 0.40811 0.51523 0.03190 0.440 1236.623 0.01724
-0.30124 -0.09192 0.40870 0.51597 0.03378 0.277 1236.653 0.01726
-0.30168 -0.09206 0.40929 0.51672 0.03566 0.327 1236.683 0.01729
-0.30211 -0.09219 0.40988 0.51746 0.03754 1.159 1236.713 0.01731
-0.30254 -0.09232 0.41047 0.51821 0.03941 2.032 1236.743 0.01733
-0.30298 -0.09245 0.41105 0.51895 0.04129 2.271 1236.773 0.01736
-0.30341 -0.09259 0.41164 0.51970 0.04317 1.489 1236.803 0.01738
-0.30385 -0.09272 0.41223 0.52044 0.04505 1.173 1236.833 0.01741
-0.30428 -0.09285 0.41282 0.52118 0.04692 0.543 1236.862 0.01743
-0.30472 -0.09298 0.41341 0.52193 0.04880 0.196 1236.892 0.01746
-0.30515 -0.09312 0.41400 0.52267 0.05068 0.145 1236.922 0.01748
-0.30559 -0.09325 0.41459 0.52342 0.05256 0.140 1236.952 0.01751
-0.30602 -0.09338 0.41518 0.52416 0.05444 0.050 1236.982 0.01753
-0.30646 -0.09352 0.41577 0.52491 0.05631 0.087 1237.012 0.01756
-0.30689 -0.09365 0.41636 0.52565 0.05819 0.085 1237.042 0.01758
-0.30733 -0.09378 0.41695 0.52640 0.06007 -0.033 1237.072 0.01760
-0.30776 -0.09391 0.41754 0.52714 0.06195 0.005 1237.101 0.01763
-0.30819 -0.09405 0.41813 0.52788 0.06383 -0.032 1237.131 0.01765
-0.30863 -0.09418 0.41872 0.52863 0.06571 -0.029 1237.161 0.01768
-0.30906 -0.09431 0.41931 0.52937 0.06758 -0.028 1237.191 0.01770
-0.30950 -0.09444 0.41990 0.53012 0.06946 -0.028 1237.221 0.01773
-0.30993 -0.09458 0.42049 0.53086 0.07134 -0.028 1237.251 0.01775
-0.31037 -0.09471 0.42108 0.53161 0.07322 0.004 1237.281 0.01778
-0.31080 -0.09484 0.42167 0.53235 0.07510 0.041 1237.311 0.01780
-0.31124 -0.09497 0.42226 0.53310 0.07698 -0.027 1237.341 0.01783
-0.31167 -0.09511 0.42285 0.53384 0.07886 0.002 1237.370 0.01785
-0.31211 -0.09524 0.42344 0.53459 0.08074 -0.028 1237.400 0.01788
-0.31254 -0.09537 0.42403 0.53533 0.08261 0.041 1237.430 0.01790
-0.31298 -0.09551 0.42462 0.53608 0.08449 0.002 1237.460 0.01792
-0.31341 -0.09564 0.42521 0.53682 0.08637 -0.027 1237.490 0.01795
-0.31385 -0.09577 0.42580 0.53757 0.08825 0.030 1237.520 0.01797
-0.31428 -0.09590 0.42639 0.53831 0.09013 0.034 1237.550 0.01800
-0.31472 -0.09604 0.42698 0.53906 0.09201 0.028 1237.580 0.01802
-0.31515 -0.09617 0.42757 0.53980 0.09389 0.027 1237.609 0.01805
-0.31559 -0.09630 0.42816 0.54055 0.09577 0.027 1237.639 0.01807
-0.31602 -0.09643 0.42875 0.54129 0.09765 0.001 1237.669 0.01810
-0.31646 -0.09657 0.42934 0.54204 0.09953 0.076 1237.699 0.01812
-0.31689 -0.09670 0.42993 0.54278 0.10141 0.003 1237.729 0.01815
-0.31733 -0.09683 0.43052 0.54353 0.10329 0.026 1237.759 0.01817
-0.31776 -0.09697 0.43111 0.54427 0.10517 -0.022 1237.789 0.01819
-0.31820 -0.09710 0.43170 0.54502 0.10705 -0.022 1237.819 0.01822
-0.31863 -0.09723 0.43229 0.54576 0.10893 0.002 1237.848 0.01824
-0.31907 -0.09736 0.43288 0.54651 0.11081 0.066 1237.878 0.01827
-0.31950 -0.09750 0.43347 0.54725 0.11269 -0.020 1237.908 0.01829
-0.31994 -0.09763 0.43406 0.54800 0.11457 0.002 1237.938 0.01832
-0.32037 -0.09776 0.43465 0.54874 0.11645 0.024 1237.968 0.01834
-0.32081 -0.09790 0.43524 0.54949 0.11833 0.003 1237.998 0.01837
-0.32124 -0.09803 0.43583 0.55024 0.12021 0.003 1238.028 0.01839
-0.32168 -0.09816 0.43643 0.55098 0.12209 0.002 1238.058 0.01842
-0.32211 -0.09829 0.43702 0.55173 0.12397 0.002 1238.087 0.01844
-0.32255 -0.09843 0.43761 0.55247 0.12585 -0.018 1238.117 0.01847
-0.32299 -0.09856 0.43820 0.55322 0.12773 -0.018 1238.147 0.01849
-0.32342 -0.09869 0.43879 0.55396 0.12961 0.062 1238.177 0.01851
-0.32386 -0.09882 0.43938 0.55471 0.13149 0.140 1238.207 0.01854
-0.32429 -0.09896 0.43997 0.55545 0.13338 0.158 1238.237 0.01856
-0.32473 -0.09909 0.44056 0.55620 0.13526 0.099 1238.267 0.01859
-0.32516 -0.09922 0.44115 0.55695 0.13714 0.213 1238.297 0.01861
-0.32560 -0.09936 0.44174 0.55769 0.13902 0.269 1238.327 0.01864
-0.32603 -0.09949 0.44233 0.55844 0.14090 0.135 1238.356 0.01866
-0.32647 -0.09962 0.44292 0.55918 0.14278 0.133 1238.386 0.01869
-0.32690 -0.09975 0.44351 0.55993 0.14466 0.205 1238.416 0.01871
-0.32734 -0.09989 0.44410 0.56067 0.14654 0.112 1238.446 0.01874
-0.32777 -0.10002 0.44469 0.56142 0.14843 0.039 1238.476 0.01876
-0.32821 -0.10015 0.44528 0.56217 0.15031 0.075 1238.506 0.01878
-0.32865 -0.10029 0.44588 0.56291 0.15219 0.003 1238.536 0.01881
-0.32908 -0.10042 0.44647 0.56366 0.15407 0.074 1238.566 0.01883
-0.32952 -0.10055 0.44706 0.56440 0.15595 0.003 1238.595 0.01886
-0.32995 -0.10069 0.44765 0.56515 0.15783 0.038 1238.625 0.01888
-0.33039 -0.10082 0.44824 0.56590 0.15972 0.089 1238.655 0.01891
-0.33082 -0.10095 0.44883 0.56664 0.16160 0.071 1238.685 0.01893
-0.33126 -0.10108 0.44942 0.56739 0.16348 0.053 1238.715 0.01896
-0.33169 -0.10122 0.45001 0.56813 0.16536 0.171 1238.745 0.01898
-0.33213 -0.10135 0.45060 0.56888 0.16724 0.119 1238.775 0.01901
-0.33257 -0.10148 0.45119 0.56963 0.16913 0.285 1238.805 0.01903
-0.33300 -0.10162 0.45178 0.57037 0.17101 0.596 1238.834 0.01905
-0.33344 -0.10175 0.45238 0.57112 0.17289 0.918 1238.864 0.01908
-0.33387 -0.10188 0.45297 0.57186 0.17477 1.205 1238.894 0.01910
-0.33431 -0.10201 0.45356 0.57261 0.17665 1.019 1238.924 0.01913
-0.33474 -0.10215 0.45415 0.57336 0.17854 1.044 1238.954 0.01915
-0.33518 -0.10228 0.45474 0.57410 0.18042 1.498 1238.984 0.01918
-0.33561 -0.10241 0.45533 0.57485 0.18230 0.890 1239.014 0.01920
-0.33605 -0.10255 0.45592 0.57560 0.18419 1.354 1239.044 0.01923
-0.33649 -0.10268 0.45651 0.57634 0.18607 1.267 1239.073 0.01925
-0.33692 -0.10281 0.45711 0.57709 0.18795 1.135 1239.103 0.01928
-0.33736 -0.10295 0.45770 0.57784 0.18983 1.297 1239.133 0.01930
-0.33779 -0.10308 0.45829 0.57858 0.19172 1.152 1239.163 0.01933
-0.33823 -0.10321 0.45888 0.57933 0.19360 0.994 1239.193 0.01935
-0.33867 -0.10334 0.45947 0.58007 0.19548 1.154 1239.223 0.01937
-0.33910 -0.10348 0.46006 0.58082 0.19737 1.103 1239.253 0.01940
-0.33954 -0.10361 0.46065 0.58157 0.19925 0.708 1239.283 0.01942
-0.33997 -0.10374 0.46124 0.58231 0.20113 0.614 1239.313 0.01945
-0.34041 -0.10388 0.46184 0.58306 0.20302 0.417 1239.342 0.01947
-0.34084 -0.10401 0.46243 0.58381 0.20490 0.282 1239.372 0.01950
-0.34128 -0.10414 0.46302 0.58455 0.20678 0.193 1239.402 0.01952
-0.34172 -0.10428 0.46361 0.58530 0.20867 0.089 1239.432 0.01955
-0.34215 -0.10441 0.46420 0.58605 0.21055 0.031 1239.462 0.01957
-0.34259 -0.10454 0.46479 0.58679 0.21243 0.075 1239.492 0.01960
-0.34302 -0.10467 0.46538 0.58754 0.21432 0.089 1239.522 0.01962
-0.34346 -0.10481 0.46598 0.58829 0.21620 0.116 1239.552 0.01964
-0.34390 -0.10494 0.46657 0.58904 0.21809 0.144 1239.581 0.01967
-0.34433 -0.10507 0.46716 0.58978 0.21997 0.314 1239.611 0.01969
-0.34477 -0.10521 0.46775 0.59053 0.22185 0.469 1239.641 0.01972
-0.34520 -0.10534 0.46834 0.59128 0.22374 0.706 1239.671 0.01974
-0.34564 -0.10547 0.46893 0.59202 0.22562 0.773 1239.701 0.01977
-0.34608 -0.10561 0.46953 0.59277 0.22751 0.855 1239.731 0.01979
-0.34651 -0.10574 0.47012 0.59352 0.22939 0.977 1239.761 0.01982
-0.34695 -0.10587 0.47071 0.59426 0.23128 0.792 1239.791 0.01984
-0.34739 -0.10600 0.47130 0.59501 0.23316 1.023 1239.820 0.01987
-0.34782 -0.10614 0.47189 0.59576 0.23504 0.993 1239.850 0.01989
-0.34826 -0.10627 0.47248 0.59650 0.23693 0.906 1239.880 0.01992
-0.34869 -0.10640 0.47308 0.59725 0.23881 1.217 1239.910 0.01994
-0.34913 -0.10654 0.47367 0.59800 0.24070 1.090 1239.940 0.01996
-0.34957 -0.10667 0.47426 0.59875 0.24258 1.385 1239.970 0.01999
-0.35000 -0.10680 0.47485 0.59949 0.24447 1.177 1240.000 0.02001
-0.35044 -0.10694 0.47544 0.60024 0.24635 1.253 1240.030 0.02004
-0.35087 -0.10707 0.47604 0.60099 0.24824 1.410 1240.059 0.02006
-0.35131 -0.10720 0.47663 0.60174 0.25012 1.192 1240.089 0.02009
-0.35175 -0.10734 0.47722 0.60248 0.25201 1.258 1240.119 0.02011
-0.35218 -0.10747 0.47781 0.60323 0.25389 1.146 1240.149 0.02014
-0.35262 -0.10760 0.47840 0.60398 0.25578 1.075 1240.179 0.02016
-0.35306 -0.10774 0.47899 0.60472 0.25766 1.176 1240.209 0.02019
-0.35349 -0.10787 0.47959 0.60547 0.25955 1.042 1240.239 0.02021
-0.35393 -0.10800 0.48018 0.60622 0.26144 0.899 1240.269 0.02023
-0.35437 -0.10813 0.48077 0.60697 0.26332 0.635 1240.299 0.02026
-0.35480 -0.10827 0.48136 0.60771 0.26521 0.472 1240.328 0.02028
-0.35524 -0.10840 0.48196 0.60846 0.26709 0.221 1240.358 0.02031
-0.35567 -0.10853 0.48255 0.60921 0.26898 0.175 1240.388 0.02033
-0.35611 -0.10867 0.48314 0.60996 0.27086 0.099 1240.418 0.02036
-0.35655 -0.10880 0.48373 0.61070 0.27275 0.055 1240.448 0.02038
-0.35698 -0.10893 0.48432 0.61145 0.27464 0.021 1240.478 0.02041
-0.35742 -0.10907 0.48492 0.61220 0.27652 0.055 1240.508 0.02043
-0.35786 -0.10920 0.48551 0.61295 0.27841 0.003 1240.538 0.02046
-0.35829 -0.10933 0.48610 0.61370 0.28029 0.041 1240.567 0.02048
-0.35873 -0.10947 0.48669 0.61444 0.28218 0.084 1240.597 0.02050
-0.35917 -0.10960 0.48728 0.61519 0.28407 0.147 1240.627 0.02053
-0.35960 -0.10973 0.48788 0.61594 0.28595 0.155 1240.657 0.02055
-0.36004 -0.10987 0.48847 0.61669 0.28784 0.268 1240.687 0.02058
-0.36048 -0.11000 0.48906 0.61743 0.28973 0.583 1240.717 0.02060
-0.36091 -0.11013 0.48965 0.61818 0.29161 0.581 1240.747 0.02063
-0.36135 -0.11027 0.49025 0.61893 0.29350 0.668 1240.777 0.02065
-0.36179 -0.11040 0.49084 0.61968 0.29539 0.692 1240.806 0.02068
-0.36222 -0.11053 0.49143 0.62043 0.29727 0.816 1240.836 0.02070
-0.36266 -0.11067 0.49202 0.62117 0.29916 0.949 1240.866 0.02073
-0.36310 -0.11080 0.49262 0.62192 0.30105 0.799 1240.896 0.02075
-0.36353 -0.11093 0.49321 0.62267 0.30293 0.997 1240.926 0.02078
-0.36397 -0.11107 0.49380 0.62342 0.30482 0.884 1240.956 0.02080
-0.36441 -0.11120 0.49439 0.62417 0.30671 0.882 1240.986 0.02082
-0.36484 -0.11133 0.49499 0.62491 0.30859 0.992 1241.016 0.02085
-0.36528 -0.11147 0.49558 0.62566 0.31048 1.102 1241.045 0.02087
-0.36572 -0.11160 0.49617 0.62641 0.31237 0.779 1241.075 0.02090
-0.36615 -0.11173 0.49676 0.62716 0.31426 1.047 1241.105 0.02092
-0.36659 -0.11187 0.49736 0.62791 0.31614 0.997 1241.135 0.02095
-0.36703 -0.11200 0.49795 0.62866 0.31803 0.960 1241.165 0.02097
-0.36746 -0.11213 0.49854 0.62940 0.31992 0.982 1241.195 0.02100
-0.36790 -0.11227 0.49914 0.63015 0.32181 0.883 1241.225 0.02102
-0.36834 -0.11240 0.49973 0.63090 0.32369 0.944 1241.255 0.02105
-0.36878 -0.11253 0.50032 0.63165 0.32558 1.151 1241.285 0.02107
-0.36921 -0.11267 0.50091 0.63240 0.32747 0.978 1241.314 0.02109
-0.36965 -0.11280 0.50151 0.63315 0.32936 1.121 1241.344 0.02112
-0.37009 -0.11293 0.50210 0.63389 0.33125 0.987 1241.374 0.02114
-0.37052 -0.11307 0.50269 0.63464 0.33313 0.901 1241.404 0.02117
-0.37096 -0.11320 0.50328 0.63539 0.33502 1.021 1241.434 0.02119
-0.37140 -0.11333 0.50388 0.63614 0.33691 1.154 1241.464 0.02122
-0.37183 -0.11347 0.50447 0.63689 0.33880 0.958 1241.494 0.02124
-0.37227 -0.11360 0.50506 0.63764 0.34069 1.066 1241.524 0.02127
-0.37271 -0.11373 0.50566 0.63838 0.34258 0.883 1241.553 0.02129
-0.37315 -0.11387 0.50625 0.63913 0.34446 0.497 1241.583 0.02132
-0.37358 -0.11400 0.50684 0.63988 0.34635 0.412 1241.613 0.02134
-0.37402 -0.11413 0.50744 0.64063 0.34824 0.134 1241.643 0.02137
-0.37446 -0.11427 0.50803 0.64138 0.35013 0.110 1241.673 0.02139
-0.37489 -0.11440 0.50862 0.64213 0.35202 0.135 1241.703 0.02141
-0.37533 -0.11453 0.50921 0.64288 0.35391 0.015 1241.733 0.02144
-0.37577 -0.11467 0.50981 0.64363 0.35580 0.050 1241.763 0.02146
-0.37621 -0.11480 0.51040 0.64437 0.35769 0.098 1241.792 0.02149
-0.37664 -0.11493 0.51099 0.64512 0.35957 0.050 1241.822 0.02151
-0.37708 -0.11507 0.51159 0.64587 0.36146 0.134 1241.852 0.02154
-0.37752 -0.11520 0.51218 0.64662 0.36335 0.086 1241.882 0.02156
-0.37795 -0.11533 0.51277 0.64737 0.36524 0.158 1241.912 0.02159
-0.37839 -0.11547 0.51337 0.64812 0.36713 0.290 1241.942 0.02161
-0.37883 -0.11560 0.51396 0.64887 0.36902 0.444 1241.972 0.02164
-0.37927 -0.11573 0.51455 0.64962 0.37091 0.755 1242.002 0.02166
-0.37970 -0.11587 0.51515 0.65037 0.37280 0.682 1242.031 0.02168
-0.38014 -0.11600 0.51574 0.65111 0.37469 0.823 1242.061 0.02171
-0.38058 -0.11613 0.51633 0.65186 0.37658 0.942 1242.091 0.02173
-0.38102 -0.11627 0.51693 0.65261 0.37847 0.859 1242.121 0.02176
-0.38145 -0.11640 0.51752 0.65336 0.38036 0.631 1242.151 0.02178
-0.38189 -0.11653 0.51811 0.65411 0.38225 0.809 1242.181 0.02181
-0.38233 -0.11667 0.51871 0.65486 0.38414 1.012 1242.211 0.02183
-0.38276 -0.11680 0.51930 0.65561 0.38603 0.928 1242.241 0.02186
-0.38320 -0.11693 0.51989 0.65636 0.38792 1.140 1242.271 0.02188
-0.38364 -0.11707 0.52049 0.65711 0.38981 1.179 1242.300 0.02191
-0.38408 -0.11720 0.52108 0.65786 0.39170 1.048 1242.330 0.02193
-0.38451 -0.11733 0.52167 0.65861 0.39359 0.964 1242.360 0.02196
-0.38495 -0.11747 0.52227 0.65936 0.39548 0.989 1242.390 0.02198
-0.38539 -0.11760 0.52286 0.66011 0.39737 0.942 1242.420 0.02200
-0.38583 -0.11774 0.52345 0.66085 0.39926 1.258 1242.450 0.02203
-0.38626 -0.11787 0.52405 0.66160 0.40115 1.064 1242.480 0.02205
-0.38670 -0.11800 0.52464 0.66235 0.40304 1.197 1242.510 0.02208
-0.38714 -0.11814 0.52524 0.66310 0.40493 1.029 1242.539 0.02210
-0.38758 -0.11827 0.52583 0.66385 0.40682 1.050 1242.569 0.02213
-0.38801 -0.11840 0.52642 0.66460 0.40871 0.816 1242.599 0.02215
-0.38845 -0.11854 0.52702 0.66535 0.41060 1.134 1242.629 0.02218
-0.38889 -0.11867 0.52761 0.66610 0.41249 0.904 1242.659 0.02220
-0.38933 -0.11880 0.52820 0.66685 0.41438 0.985 1242.689 0.02223
-0.38977 -0.11894 0.52880 0.66760 0.41628 0.823 1242.719 0.02225
-0.39020 -0.11907 0.52939 0.66835 0.41817 0.900 1242.749 0.02227
-0.39064 -0.11920 0.52999 0.66910 0.42006 0.951 1242.778 0.02230
-0.39108 -0.11934 0.53058 0.66985 0.42195 0.923 1242.808 0.02232
-0.39152 -0.11947 0.53117 0.67060 0.42384 1.024 1242.838 0.02235
-0.39195 -0.11961 0.53177 0.67135 0.42573 0.948 1242.868 0.02237
-0.39239 -0.11974 0.53236 0.67210 0.42762 0.836 1242.898 0.02240
-0.39283 -0.11987 0.53296 0.67285 0.42951 1.049 1242.928 0.02242
-0.39327 -0.12001 0.53355 0.67360 0.43141 1.065 1242.958 0.02245
-0.39370 -0.12014 0.53414 0.67435 0.43330 1.121 1242.988 0.02247
-0.39414 -0.12027 0.53474 0.67510 0.43519 0.751 1243.017 0.02250
-0.39458 -0.12041 0.53533 0.67585 0.43708 0.907 1243.047 0.02252
-0.39502 -0.12054 0.53592 0.67660 0.43897 0.812 1243.077 0.02254
-0.39546 -0.12067 0.53652 0.67735 0.44087 0.957 1243.107 0.02257
-0.39589 -0.12081 0.53711 0.67810 0.44276 0.992 1243.137 0.02259
-0.39633 -0.12094 0.53771 0.67885 0.44465 0.947 1243.167 0.02262
-0.39677 -0.12107 0.53830 0.67960 0.44654 0.947 1243.197 0.02264
-0.39721 -0.12121 0.53890 0.68035 0.44843 0.600 1243.227 0.02267
-0.39765 -0.12134 0.53949 0.68110 0.45033 0.506 1243.257 0.02269
-0.39808 -0.12148 0.54008 0.68185 0.45222 0.218 1243.286 0.02272
-0.39852 -0.12161 0.54068 0.68260 0.45411 0.230 1243.316 0.02274
-0.39896 -0.12174 0.54127 0.68335 0.45600 0.075 1243.346 0.02277
-0.39940 -0.12188 0.54187 0.68410 0.45790 0.111 1243.376 0.02279
-0.39984 -0.12201 0.54246 0.68485 0.45979 0.039 1243.406 0.02282
-0.40027 -0.12214 0.54305 0.68560 0.46168 0.027 1243.436 0.02284
-0.40071 -0.12228 0.54365 0.68635 0.46357 0.027 1243.466 0.02286
-0.40115 -0.12241 0.54424 0.68710 0.46547 0.063 1243.496 0.02289
-0.40159 -0.12254 0.54484 0.68785 0.46736 0.063 1243.525 0.02291
-0.40203 -0.12268 0.54543 0.68860 0.46925 0.114 1243.555 0.02294
-0.40246 -0.12281 0.54603 0.68935 0.47114 0.246 1243.585 0.02296
-0.40290 -0.12295 0.54662 0.69010 0.47304 0.388 1243.615 0.02299
-0.40334 -0.12308 0.54722 0.69085 0.47493 0.570 1243.645 0.02301
-0.40378 -0.12321 0.54781 0.69160 0.47682 0.605 1243.675 0.02304
-0.40422 -0.12335 0.54840 0.69235 0.47872 0.860 1243.705 0.02306
-0.40465 -0.12348 0.54900 0.69310 0.48061 0.716 1243.735 0.02309
-0.40509 -0.12361 0.54959 0.69385 0.48250 0.776 1243.764 0.02311
-0.40553 -0.12375 0.55019 0.69461 0.48440 0.849 1243.794 0.02313
-0.40597 -0.12388 0.55078 0.69536 0.48629 0.887 1243.824 0.02316
-0.40641 -0.12402 0.55138 0.69611 0.48818 0.851 1243.854 0.02318
-0.40685 -0.12415 0.55197 0.69686 0.49008 0.804 1243.884 0.02321
-0.40728 -0.12428 0.55257 0.69761 0.49197 0.925 1243.914 0.02323
-0.40772 -0.12442 0.55316 0.69836 0.49387 1.083 1243.944 0.02326
-0.40816 -0.12455 0.55376 0.69911 0.49576 1.157 1243.974 0.02328
-0.40860 -0.12468 0.55435 0.69986 0.49765 0.964 1244.003 0.02331
-0.40904 -0.12482 0.55495 0.70061 0.49955 1.183 1244.033 0.02333
-0.40948 -0.12495 0.55554 0.70136 0.50144 0.989 1244.063 0.02336
-0.40991 -0.12509 0.55613 0.70211 0.50334 1.124 1244.093 0.02338
-0.41035 -0.12522 0.55673 0.70286 0.50523 1.222 1244.123 0.02341
-0.41079 -0.12535 0.55732 0.70361 0.50712 0.992 1244.153 0.02343
-0.41123 -0.12549 0.55792 0.70437 0.50902 1.151 1244.183 0.02345
-0.41167 -0.12562 0.55851 0.70512 0.51091 1.007 1244.213 0.02348
-0.41211 -0.12575 0.55911 0.70587 0.51281 1.069 1244.243 0.02350
-0.41255 -0.12589 0.55970 0.70662 0.51470 1.143 1244.272 0.02353
-0.41298 -0.12602 0.56030 0.70737 0.51660 1.181 1244.302 0.02355
-0.41342 -0.12616 0.56089 0.70812 0.51849 1.145 1244.332 0.02358
-0.41386 -0.12629 0.56149 0.70887 0.52039 1.109 1244.362 0.02360
-0.41430 -0.12642 0.56208 0.70962 0.52228 1.036 1244.392 0.02363
-0.41474 -0.12656 0.56268 0.71037 0.52418 1.098 1244.422 0.02365
-0.41518 -0.12669 0.56327 0.71112 0.52607 1.112 1244.452 0.02368
-0.41561 -0.12683 0.56387 0.71188 0.52797 1.040 1244.482 0.02370
-0.41605 -0.12696 0.56446 0.71263 0.52986 1.029 1244.511 0.02372
-0.41649 -0.12709 0.56506 0.71338 0.53176 1.090 1244.541 0.02375
-0.41693 -0.12723 0.56565 0.71413 0.53365 1.043 1244.571 0.02377
-0.41737 -0.12736 0.56625 0.71488 0.53555 0.994 1244.601 0.02380
-0.41781 -0.12749 0.56684 0.71563 0.53744 0.896 1244.631 0.02382
-0.41825 -0.12763 0.56744 0.71638 0.53934 1.418 1244.661 0.02385
-0.41869 -0.12776 0.56803 0.71714 0.54123 1.084 1244.691 0.02387
-0.41912 -0.12790 0.56863 0.71789 0.54313 1.185 1244.721 0.02390
-0.41956 -0.12803 0.56922 0.71864 0.54502 1.173 1244.750 0.02392
-0.42000 -0.12816 0.56982 0.71939 0.54692 1.050 1244.780 0.02395
-0.42044 -0.12830 0.57041 0.72014 0.54882 1.089 1244.810 0.02397
-0.42088 -0.12843 0.57101 0.72089 0.55071 1.267 1244.840 0.02400
-0.42132 -0.12857 0.57161 0.72164 0.55261 1.192 1244.870 0.02402
-0.42176 -0.12870 0.57220 0.72240 0.55450 1.117 1244.900 0.02404
-0.42220 -0.12883 0.57280 0.72315 0.55640 1.006 1244.930 0.02407
-0.42263 -0.12897 0.57339 0.72390 0.55829 1.196 1244.960 0.02409
-0.42307 -0.12910 0.57399 0.72465 0.56019 1.071 1244.989 0.02412
-0.42351 -0.12923 0.57458 0.72540 0.56209 0.996 1245.019 0.02414
-0.42395 -0.12937 0.57518 0.72615 0.56398 0.960 1245.049 0.02417
-0.42439 -0.12950 0.57577 0.72691 0.56588 0.936 1245.079 0.02419
-0.42483 -0.12964 0.57637 0.72766 0.56778 0.949 1245.109 0.02422
-0.42527 -0.12977 0.57696 0.72841 0.56967 1.039 1245.139 0.02424
-0.42571 -0.12990 0.57756 0.72916 0.57157 1.016 1245.169 0.02427
-0.42615 -0.13004 0.57816 0.72991 0.57347 1.042 1245.199 0.02429
-0.42658 -0.13017 0.57875 0.73066 0.57536 0.941 1245.229 0.02431
