x y z dist_scaled dist_frac flux_norm wavelength redshift
-0.32151 -0.13104 0.36338 0.50258 0.00000 0.337 1236.115 0.01682
-0.32199 -0.13123 0.36392 0.50333 0.00188 0.554 1236.145 0.01684
-0.32247 -0.13142 0.36446 0.50407 0.00375 0.599 1236.175 0.01687
-0.32294 -0.13162 0.36500 0.50481 0.00563 0.667 1236.205 0.01689
-0.32342 -0.13181 0.36553 0.50556 0.00751 0.561 1236.235 0.01692
-0.32389 -0.13201 0.36607 0.50630 0.00938 0.509 1236.265 0.01694
-0.32437 -0.13220 0.36661 0.50705 0.01126 0.464 1236.295 0.01697
-0.32484 -0.13239 0.36715 0.50779 0.01313 0.822 1236.325 0.01699
-0.32532 -0.13259 0.36769 0.50853 0.01501 1.027 1236.355 0.01701
-0.32580 -0.13278 0.36822 0.50928 0.01689 0.978 1236.384 0.01704
-0.32627 -0.13298 0.36876 0.51002 0.01876 0.969 1236.414 0.01706
-0.32675 -0.13317 0.36930 0.51077 0.02064 0.766 1236.444 0.01709
-0.32722 -0.13336 0.36984 0.51151 0.02252 1.277 1236.474 0.01711
-0.32770 -0.13356 0.37038 0.51225 0.02440 0.848 1236.504 0.01714
-0.32818 -0.13375 0.37091 0.51300 0.02627 0.758 1236.534 0.01716
-0.32865 -0.13395 0.37145 0.51374 0.02815 0.756 1236.564 0.01719
-0.32913 -0.13414 0.37199 0.51449 0.03003 1.186 1236.594 0.01721
-0.32960 -0.13433 0.37253 0.51523 0.03190 0.794 1236.623 0.01724
-0.33008 -0.13453 0.37307 0.51597 0.03378 0.518 1236.653 0.01726
-0.33056 -0.13472 0.37360 0.51672 0.03566 1.027 1236.683 0.01729
-0.33103 -0.13492 0.37414 0.51746 0.03754 0.865 1236.713 0.01731
-0.33151 -0.13511 0.37468 0.51821 0.03941 0.557 1236.743 0.01733
-0.33199 -0.13530 0.37522 0.51895 0.04129 0.595 1236.773 0.01736
-0.33246 -0.13550 0.37576 0.51970 0.04317 0.558 1236.803 0.01738
-0.33294 -0.13569 0.37629 0.52044 0.04505 0.635 1236.833 0.01741
-0.33341 -0.13589 0.37683 0.52118 0.04692 0.557 1236.862 0.01743
-0.33389 -0.13608 0.37737 0.52193 0.04880 0.831 1236.892 0.01746
-0.33437 -0.13627 0.37791 0.52267 0.05068 0.715 1236.922 0.01748
-0.33484 -0.13647 0.37845 0.52342 0.05256 1.177 1236.952 0.01751
-0.33532 -0.13666 0.37899 0.52416 0.05444 0.986 1236.982 0.01753
-0.33580 -0.13686 0.37952 0.52491 0.05631 1.103 1237.012 0.01756
-0.33627 -0.13705 0.38006 0.52565 0.05819 0.712 1237.042 0.01758
-0.33675 -0.13725 0.38060 0.52640 0.06007 1.410 1237.072 0.01760
-0.33722 -0.13744 0.38114 0.52714 0.06195 0.673 1237.101 0.01763
-0.33770 -0.13763 0.38168 0.52788 0.06383 1.256 1237.131 0.01765
-0.33818 -0.13783 0.38222 0.52863 0.06571 1.873 1237.161 0.01768
-0.33865 -0.13802 0.38275 0.52937 0.06758 1.061 1237.191 0.01770
-0.33913 -0.13822 0.38329 0.53012 0.06946 1.098 1237.221 0.01773
-0.33961 -0.13841 0.38383 0.53086 0.07134 0.944 1237.251 0.01775
-0.34008 -0.13860 0.38437 0.53161 0.07322 1.176 1237.281 0.01778
-0.34056 -0.13880 0.38491 0.53235 0.07510 0.788 1237.311 0.01780
-0.34104 -0.13899 0.38545 0.53310 0.07698 0.903 1237.341 0.01783
-0.34151 -0.13919 0.38599 0.53384 0.07886 1.211 1237.370 0.01785
-0.34199 -0.13938 0.38652 0.53459 0.08074 1.290 1237.400 0.01788
-0.34246 -0.13958 0.38706 0.53533 0.08261 1.287 1237.430 0.01790
-0.34294 -0.13977 0.38760 0.53608 0.08449 0.898 1237.460 0.01792
-0.34342 -0.13996 0.38814 0.53682 0.08637 0.938 1237.490 0.01795
-0.34389 -0.14016 0.38868 0.53757 0.08825 1.170 1237.520 0.01797
-0.34437 -0.14035 0.38922 0.53831 0.09013 1.053 1237.550 0.01800
-0.34485 -0.14055 0.38976 0.53906 0.09201 0.897 1237.580 0.01802
-0.34532 -0.14074 0.39029 0.53980 0.09389 0.784 1237.609 0.01805
-0.34580 -0.14094 0.39083 0.54055 0.09577 1.286 1237.639 0.01807
-0.34628 -0.14113 0.39137 0.54129 0.09765 0.975 1237.669 0.01810
-0.34675 -0.14132 0.39191 0.54204 0.09953 1.320 1237.699 0.01812
-0.34723 -0.14152 0.39245 0.54278 0.10141 1.171 1237.729 0.01815
-0.34771 -0.14171 0.39299 0.54353 0.10329 1.244 1237.759 0.01817
-0.34818 -0.14191 0.39353 0.54427 0.10517 0.515 1237.789 0.01819
-0.34866 -0.14210 0.39407 0.54502 0.10705 0.706 1237.819 0.01822
-0.34914 -0.14230 0.39460 0.54576 0.10893 0.975 1237.848 0.01824
-0.34961 -0.14249 0.39514 0.54651 0.11081 1.092 1237.878 0.01827
-0.35009 -0.14268 0.39568 0.54725 0.11269 1.209 1237.908 0.01829
-0.35057 -0.14288 0.39622 0.54800 0.11457 1.051 1237.938 0.01832
-0.35105 -0.14307 0.39676 0.54874 0.11645 0.746 1237.968 0.01834
-0.35152 -0.14327 0.39730 0.54949 0.11833 1.091 1237.998 0.01837
-0.35200 -0.14346 0.39784 0.55024 0.12021 0.860 1238.028 0.01839
-0.35248 -0.14366 0.39838 0.55098 0.12209 1.013 1238.058 0.01842
-0.35295 -0.14385 0.39892 0.55173 0.12397 0.820 1238.087 0.01844
-0.35343 -0.14404 0.39945 0.55247 0.12585 0.973 1238.117 0.01847
-0.35391 -0.14424 0.39999 0.55322 0.12773 1.006 1238.147 0.01849
-0.35438 -0.14443 0.40053 0.55396 0.12961 1.047 1238.177 0.01851
-0.35486 -0.14463 0.40107 0.55471 0.13149 0.936 1238.207 0.01854
-0.35534 -0.14482 0.40161 0.55545 0.13338 0.931 1238.237 0.01856
-0.35581 -0.14502 0.40215 0.55620 0.13526 0.706 1238.267 0.01859
-0.35629 -0.14521 0.40269 0.55695 0.13714 0.972 1238.297 0.01861
-0.35677 -0.14541 0.40323 0.55769 0.13902 0.628 1238.327 0.01864
-0.35725 -0.14560 0.40377 0.55844 0.14090 1.317 1238.356 0.01866
-0.35772 -0.14579 0.40431 0.55918 0.14278 1.129 1238.386 0.01869
-0.35820 -0.14599 0.40485 0.55993 0.14466 0.784 1238.416 0.01871
-0.35868 -0.14618 0.40539 0.56067 0.14654 0.745 1238.446 0.01874
-0.35915 -0.14638 0.40592 0.56142 0.14843 0.970 1238.476 0.01876
-0.35963 -0.14657 0.40646 0.56217 0.15031 0.970 1238.506 0.01878
-0.36011 -0.14677 0.40700 0.56291 0.15219 1.200 1238.536 0.01881
-0.36059 -0.14696 0.40754 0.56366 0.15407 0.911 1238.566 0.01883
-0.36106 -0.14716 0.40808 0.56440 0.15595 0.863 1238.595 0.01886
-0.36154 -0.14735 0.40862 0.56515 0.15783 0.753 1238.625 0.01888
-0.36202 -0.14754 0.40916 0.56590 0.15972 0.727 1238.655 0.01891
-0.36249 -0.14774 0.40970 0.56664 0.16160 1.051 1238.685 0.01893
-0.36297 -0.14793 0.41024 0.56739 0.16348 0.817 1238.715 0.01896
-0.36345 -0.14813 0.41078 0.56813 0.16536 0.769 1238.745 0.01898
-0.36393 -0.14832 0.41132 0.56888 0.16724 0.846 1238.775 0.01901
-0.36440 -0.14852 0.41186 0.56963 0.16913 1.124 1238.805 0.01903
-0.36488 -0.14871 0.41240 0.57037 0.17101 0.847 1238.834 0.01905
-0.36536 -0.14891 0.41294 0.57112 0.17289 0.821 1238.864 0.01908
-0.36584 -0.14910 0.41348 0.57186 0.17477 0.999 1238.894 0.01910
-0.36631 -0.14930 0.41402 0.57261 0.17665 0.965 1238.924 0.01913
-0.36679 -0.14949 0.41456 0.57336 0.17854 0.957 1238.954 0.01915
-0.36727 -0.14968 0.41510 0.57410 0.18042 1.118 1238.984 0.01918
-0.36775 -0.14988 0.41563 0.57485 0.18230 0.927 1239.014 0.01920
-0.36822 -0.15007 0.41617 0.57560 0.18419 0.891 1239.044 0.01923
-0.36870 -0.15027 0.41671 0.57634 0.18607 0.924 1239.073 0.01925
-0.36918 -0.15046 0.41725 0.57709 0.18795 0.964 1239.103 0.01928
-0.36966 -0.15066 0.41779 0.57784 0.18983 0.925 1239.133 0.01930
-0.37013 -0.15085 0.41833 0.57858 0.19172 0.811 1239.163 0.01933
-0.37061 -0.15105 0.41887 0.57933 0.19360 1.304 1239.193 0.01935
-0.37109 -0.15124 0.41941 0.58007 0.19548 1.003 1239.223 0.01937
-0.37157 -0.15144 0.41995 0.58082 0.19737 0.965 1239.253 0.01940
-0.37204 -0.15163 0.42049 0.58157 0.19925 0.777 1239.283 0.01942
-0.37252 -0.15183 0.42103 0.58231 0.20113 0.966 1239.313 0.01945
-0.37300 -0.15202 0.42157 0.58306 0.20302 0.926 1239.342 0.01947
-0.37348 -0.15221 0.42211 0.58381 0.20490 1.001 1239.372 0.01950
-0.37395 -0.15241 0.42265 0.58455 0.20678 1.566 1239.402 0.01952
-0.37443 -0.15260 0.42319 0.58530 0.20867 0.887 1239.432 0.01955
-0.37491 -0.15280 0.42373 0.58605 0.21055 1.303 1239.462 0.01957
-0.37539 -0.15299 0.42427 0.58679 0.21243 0.847 1239.492 0.01960
-0.37586 -0.15319 0.42481 0.58754 0.21432 0.999 1239.522 0.01962
-0.37634 -0.15338 0.42535 0.58829 0.21620 0.849 1239.552 0.01964
-0.37682 -0.15358 0.42589 0.58904 0.21809 0.998 1239.581 0.01967
-0.37730 -0.15377 0.42643 0.58978 0.21997 0.961 1239.611 0.01969
-0.37778 -0.15397 0.42697 0.59053 0.22185 0.998 1239.641 0.01972
-0.37825 -0.15416 0.42751 0.59128 0.22374 0.922 1239.671 0.01974
-0.37873 -0.15436 0.42805 0.59202 0.22562 1.262 1239.701 0.01977
-0.37921 -0.15455 0.42859 0.59277 0.22751 0.775 1239.731 0.01979
-0.37969 -0.15475 0.42913 0.59352 0.22939 0.887 1239.761 0.01982
-0.38016 -0.15494 0.42967 0.59426 0.23128 0.923 1239.791 0.01984
-0.38064 -0.15514 0.43021 0.59501 0.23316 0.810 1239.820 0.01987
-0.38112 -0.15533 0.43075 0.59576 0.23504 0.957 1239.850 0.01989
-0.38160 -0.15552 0.43129 0.59650 0.23693 1.108 1239.880 0.01992
-0.38208 -0.15572 0.43183 0.59725 0.23881 1.032 1239.910 0.01994
-0.38255 -0.15591 0.43237 0.59800 0.24070 1.106 1239.940 0.01996
-0.38303 -0.15611 0.43291 0.59875 0.24258 0.918 1239.970 0.01999
-0.38351 -0.15630 0.43345 0.59949 0.24447 1.292 1240.000 0.02001
-0.38399 -0.15650 0.43399 0.60024 0.24635 1.369 1240.030 0.02004
-0.38447 -0.15669 0.43453 0.60099 0.24824 1.106 1240.059 0.02006
-0.38494 -0.15689 0.43507 0.60174 0.25012 1.109 1240.089 0.02009
-0.38542 -0.15708 0.43561 0.60248 0.25201 0.882 1240.119 0.02011
-0.38590 -0.15728 0.43615 0.60323 0.25389 1.297 1240.149 0.02014
-0.38638 -0.15747 0.43669 0.60398 0.25578 0.808 1240.179 0.02016
-0.38686 -0.15767 0.43723 0.60472 0.25766 0.844 1240.209 0.02019
-0.38733 -0.15786 0.43778 0.60547 0.25955 0.996 1240.239 0.02021
-0.38781 -0.15806 0.43832 0.60622 0.26144 0.920 1240.269 0.02023
-0.38829 -0.15825 0.43886 0.60697 0.26332 0.693 1240.299 0.02026
-0.38877 -0.15845 0.43940 0.60771 0.26521 1.144 1240.328 0.02028
-0.38925 -0.15864 0.43994 0.60846 0.26709 0.843 1240.358 0.02031
-0.38973 -0.15884 0.44048 0.60921 0.26898 0.729 1240.388 0.02033
-0.39020 -0.15903 0.44102 0.60996 0.27086 0.878 1240.418 0.02036
-0.39068 -0.15923 0.44156 0.61070 0.27275 0.951 1240.448 0.02038
-0.39116 -0.15942 0.44210 0.61145 0.27464 0.912 1240.478 0.02041
-0.39164 -0.15962 0.44264 0.61220 0.27652 1.211 1240.508 0.02043
-0.39212 -0.15981 0.44318 0.61295 0.27841 1.062 1240.538 0.02046
-0.39260 -0.16001 0.44372 0.61370 0.28029 1.062 1240.567 0.02048
-0.39307 -0.16020 0.44426 0.61444 0.28218 0.837 1240.597 0.02050
-0.39355 -0.16040 0.44480 0.61519 0.28407 1.136 1240.627 0.02053
-0.39403 -0.16059 0.44534 0.61594 0.28595 0.724 1240.657 0.02055
-0.39451 -0.16079 0.44588 0.61669 0.28784 0.986 1240.687 0.02058
-0.39499 -0.16098 0.44642 0.61743 0.28973 1.023 1240.717 0.02060
-0.39547 -0.16118 0.44697 0.61818 0.29161 1.058 1240.747 0.02063
-0.39594 -0.16137 0.44751 0.61893 0.29350 0.872 1240.777 0.02065
-0.39642 -0.16157 0.44805 0.61968 0.29539 1.173 1240.806 0.02068
-0.39690 -0.16176 0.44859 0.62043 0.29727 0.872 1240.836 0.02070
-0.39738 -0.16196 0.44913 0.62117 0.29916 0.910 1240.866 0.02073
-0.39786 -0.16215 0.44967 0.62192 0.30105 1.135 1240.896 0.02075
-0.39834 -0.16235 0.45021 0.62267 0.30293 0.872 1240.926 0.02078
-0.39882 -0.16254 0.45075 0.62342 0.30482 1.097 1240.956 0.02080
-0.39929 -0.16274 0.45129 0.62417 0.30671 0.985 1240.986 0.02082
-0.39977 -0.16293 0.45183 0.62491 0.30859 1.657 1241.016 0.02085
-0.40025 -0.16313 0.45237 0.62566 0.31048 0.873 1241.045 0.02087
-0.40073 -0.16332 0.45291 0.62641 0.31237 0.949 1241.075 0.02090
-0.40121 -0.16352 0.45346 0.62716 0.31426 1.023 1241.105 0.02092
-0.40169 -0.16371 0.45400 0.62791 0.31614 1.249 1241.135 0.02095
-0.40217 -0.16391 0.45454 0.62866 0.31803 0.834 1241.165 0.02097
-0.40264 -0.16410 0.45508 0.62940 0.31992 1.168 1241.195 0.02100
-0.40312 -0.16430 0.45562 0.63015 0.32181 1.055 1241.225 0.02102
-0.40360 -0.16449 0.45616 0.63090 0.32369 0.977 1241.255 0.02105
-0.40408 -0.16469 0.45670 0.63165 0.32558 0.791 1241.285 0.02107
-0.40456 -0.16488 0.45724 0.63240 0.32747 1.165 1241.314 0.02109
-0.40504 -0.16508 0.45778 0.63315 0.32936 1.574 1241.344 0.02112
-0.40552 -0.16527 0.45832 0.63389 0.33125 1.129 1241.374 0.02114
-0.40600 -0.16547 0.45887 0.63464 0.33313 0.903 1241.404 0.02117
-0.40647 -0.16566 0.45941 0.63539 0.33502 1.018 1241.434 0.02119
-0.40695 -0.16586 0.45995 0.63614 0.33691 1.131 1241.464 0.02122
-0.40743 -0.16605 0.46049 0.63689 0.33880 1.131 1241.494 0.02124
-0.40791 -0.16625 0.46103 0.63764 0.34069 0.759 1241.524 0.02127
-0.40839 -0.16644 0.46157 0.63838 0.34258 1.054 1241.553 0.02129
-0.40887 -0.16664 0.46211 0.63913 0.34446 1.054 1241.583 0.02132
-0.40935 -0.16683 0.46265 0.63988 0.34635 1.128 1241.613 0.02134
-0.40983 -0.16703 0.46320 0.64063 0.34824 0.679 1241.643 0.02137
-0.41031 -0.16722 0.46374 0.64138 0.35013 1.388 1241.673 0.02139
-0.41078 -0.16742 0.46428 0.64213 0.35202 1.091 1241.703 0.02141
-0.41126 -0.16762 0.46482 0.64288 0.35391 1.383 1241.733 0.02144
-0.41174 -0.16781 0.46536 0.64363 0.35580 1.235 1241.763 0.02146
-0.41222 -0.16801 0.46590 0.64437 0.35769 0.492 1241.792 0.02149
-0.41270 -0.16820 0.46644 0.64512 0.35957 1.197 1241.822 0.02151
-0.41318 -0.16840 0.46699 0.64587 0.36146 1.272 1241.852 0.02154
-0.41366 -0.16859 0.46753 0.64662 0.36335 1.197 1241.882 0.02156
-0.41414 -0.16879 0.46807 0.64737 0.36524 1.012 1241.912 0.02159
-0.41462 -0.16898 0.46861 0.64812 0.36713 0.752 1241.942 0.02161
-0.41510 -0.16918 0.46915 0.64887 0.36902 1.123 1241.972 0.02164
-0.41558 -0.16937 0.46969 0.64962 0.37091 0.639 1242.002 0.02166
-0.41605 -0.16957 0.47023 0.65037 0.37280 1.156 1242.031 0.02168
-0.41653 -0.16976 0.47078 0.65111 0.37469 0.895 1242.061 0.02171
-0.41701 -0.16996 0.47132 0.65186 0.37658 0.859 1242.091 0.02173
-0.41749 -0.17015 0.47186 0.65261 0.37847 0.970 1242.121 0.02176
-0.41797 -0.17035 0.47240 0.65336 0.38036 0.821 1242.151 0.02178
-0.41845 -0.17054 0.47294 0.65411 0.38225 0.970 1242.181 0.02181
-0.41893 -0.17074 0.47348 0.65486 0.38414 1.009 1242.211 0.02183
-0.41941 -0.17094 0.47403 0.65561 0.38603 1.530 1242.241 0.02186
-0.41989 -0.17113 0.47457 0.65636 0.38792 1.086 1242.271 0.02188
-0.42037 -0.17133 0.47511 0.65711 0.38981 1.161 1242.300 0.02191
-0.42085 -0.17152 0.47565 0.65786 0.39170 1.011 1242.330 0.02193
-0.42133 -0.17172 0.47619 0.65861 0.39359 0.936 1242.360 0.02196
-0.42181 -0.17191 0.47674 0.65936 0.39548 1.122 1242.390 0.02198
-0.42229 -0.17211 0.47728 0.66011 0.39737 0.938 1242.420 0.02200
-0.42276 -0.17230 0.47782 0.66085 0.39926 0.900 1242.450 0.02203
-0.42324 -0.17250 0.47836 0.66160 0.40115 0.639 1242.480 0.02205
-0.42372 -0.17269 0.47890 0.66235 0.40304 0.529 1242.510 0.02208
-0.42420 -0.17289 0.47944 0.66310 0.40493 0.753 1242.539 0.02210
-0.42468 -0.17308 0.47999 0.66385 0.40682 0.829 1242.569 0.02213
-0.42516 -0.17328 0.48053 0.66460 0.40871 0.975 1242.599 0.02215
-0.42564 -0.17348 0.48107 0.66535 0.41060 0.570 1242.629 0.02218
-0.42612 -0.17367 0.48161 0.66610 0.41249 0.789 1242.659 0.02220
-0.42660 -0.17387 0.48215 0.66685 0.41438 1.232 1242.689 0.02223
-0.42708 -0.17406 0.48270 0.66760 0.41628 1.048 1242.719 0.02225
-0.42756 -0.17426 0.48324 0.66835 0.41817 0.826 1242.749 0.02227
-0.42804 -0.17445 0.48378 0.66910 0.42006 0.827 1242.778 0.02230
-0.42852 -0.17465 0.48432 0.66985 0.42195 0.938 1242.808 0.02232
-0.42900 -0.17484 0.48486 0.67060 0.42384 1.052 1242.838 0.02235
-0.42948 -0.17504 0.48541 0.67135 0.42573 1.013 1242.868 0.02237
-0.42996 -0.17523 0.48595 0.67210 0.42762 0.939 1242.898 0.02240
-0.43044 -0.17543 0.48649 0.67285 0.42951 1.159 1242.928 0.02242
-0.43092 -0.17563 0.48703 0.67360 0.43141 1.047 1242.958 0.02245
-0.43140 -0.17582 0.48758 0.67435 0.43330 1.085 1242.988 0.02247
-0.43188 -0.17602 0.48812 0.67510 0.43519 0.863 1243.017 0.02250
-0.43236 -0.17621 0.48866 0.67585 0.43708 1.122 1243.047 0.02252
-0.43284 -0.17641 0.48920 0.67660 0.43897 0.898 1243.077 0.02254
-0.43332 -0.17660 0.48974 0.67735 0.44087 0.971 1243.107 0.02257
-0.43380 -0.17680 0.49029 0.67810 0.44276 0.896 1243.137 0.02259
-0.43428 -0.17699 0.49083 0.67885 0.44465 0.970 1243.167 0.02262
-0.43476 -0.17719 0.49137 0.67960 0.44654 1.264 1243.197 0.02264
-0.43524 -0.17739 0.49191 0.68035 0.44843 1.116 1243.227 0.02267
-0.43572 -0.17758 0.49246 0.68110 0.45033 1.078 1243.257 0.02269
-0.43619 -0.17778 0.49300 0.68185 0.45222 1.116 1243.286 0.02272
-0.43667 -0.17797 0.49354 0.68260 0.45411 1.042 1243.316 0.02274
-0.43715 -0.17817 0.49408 0.68335 0.45600 0.489 1243.346 0.02277
-0.43763 -0.17836 0.49463 0.68410 0.45790 1.189 1243.376 0.02279
-0.43811 -0.17856 0.49517 0.68485 0.45979 1.226 1243.406 0.02282
-0.43859 -0.17875 0.49571 0.68560 0.46168 0.637 1243.436 0.02284
-0.43907 -0.17895 0.49625 0.68635 0.46357 0.786 1243.466 0.02286
-0.43955 -0.17915 0.49680 0.68710 0.46547 1.121 1243.496 0.02289
-0.44003 -0.17934 0.49734 0.68785 0.46736 0.824 1243.525 0.02291
-0.44051 -0.17954 0.49788 0.68860 0.46925 1.120 1243.555 0.02294
-0.44099 -0.17973 0.49842 0.68935 0.47114 0.898 1243.585 0.02296
-0.44147 -0.17993 0.49897 0.69010 0.47304 0.823 1243.615 0.02299
-0.44195 -0.18012 0.49951 0.69085 0.47493 1.046 1243.645 0.02301
-0.44243 -0.18032 0.50005 0.69160 0.47682 0.603 1243.675 0.02304
-0.44292 -0.18052 0.50059 0.69235 0.47872 0.750 1243.705 0.02306
-0.44340 -0.18071 0.50114 0.69310 0.48061 1.081 1243.735 0.02309
-0.44388 -0.18091 0.50168 0.69385 0.48250 1.007 1243.764 0.02311
-0.44436 -0.18110 0.50222 0.69461 0.48440 1.083 1243.794 0.02313
-0.44484 -0.18130 0.50276 0.69536 0.48629 0.898 1243.824 0.02316
-0.44532 -0.18149 0.50331 0.69611 0.48818 0.933 1243.854 0.02318
-0.44580 -0.18169 0.50385 0.69686 0.49008 0.600 1243.884 0.02321
-0.44628 -0.18189 0.50439 0.69761 0.49197 0.818 1243.914 0.02323
-0.44676 -0.18208 0.50494 0.69836 0.49387 0.965 1243.944 0.02326
-0.44724 -0.18228 0.50548 0.69911 0.49576 0.966 1243.974 0.02328
-0.44772 -0.18247 0.50602 0.69986 0.49765 0.781 1244.003 0.02331
-0.44820 -0.18267 0.50656 0.70061 0.49955 1.117 1244.033 0.02333
-0.44868 -0.18286 0.50711 0.70136 0.50144 0.924 1244.063 0.02336
-0.44916 -0.18306 0.50765 0.70211 0.50334 0.718 1244.093 0.02338
-0.44964 -0.18326 0.50819 0.70286 0.50523 0.408 1244.123 0.02341
-0.45012 -0.18345 0.50874 0.70361 0.50712 0.128 1244.153 0.02343
-0.45060 -0.18365 0.50928 0.70437 0.50902 0.173 1244.183 0.02345
-0.45108 -0.18384 0.50982 0.70512 0.51091 0.042 1244.213 0.02348
-0.45156 -0.18404 0.51036 0.70587 0.51281 0.006 1244.243 0.02350
-0.45204 -0.18423 0.51091 0.70662 0.51470 0.116 1244.272 0.02353
-0.45252 -0.18443 0.51145 0.70737 0.51660 0.012 1244.302 0.02355
-0.45300 -0.18463 0.51199 0.70812 0.51849 0.093 1244.332 0.02358
-0.45348 -0.18482 0.51254 0.70887 0.52039 0.088 1244.362 0.02360
-0.45396 -0.18502 0.51308 0.70962 0.52228 0.044 1244.392 0.02363
-0.45444 -0.18521 0.51362 0.71037 0.52418 0.002 1244.422 0.02365
-0.45492 -0.18541 0.51417 0.71112 0.52607 0.158 1244.452 0.02368
-0.45540 -0.18561 0.51471 0.71188 0.52797 0.076 1244.482 0.02370
-0.45588 -0.18580 0.51525 0.71263 0.52986 0.123 1244.511 0.02372
-0.45637 -0.18600 0.51580 0.71338 0.53176 0.124 1244.541 0.02375
-0.45685 -0.18619 0.51634 0.71413 0.53365 0.042 1244.571 0.02377
-0.45733 -0.18639 0.51688 0.71488 0.53555 0.125 1244.601 0.02380
-0.45781 -0.18658 0.51742 0.71563 0.53744 0.060 1244.631 0.02382
-0.45829 -0.18678 0.51797 0.71638 0.53934 0.123 1244.661 0.02385
-0.45877 -0.18698 0.51851 0.71714 0.54123 0.328 1244.691 0.02387
-0.45925 -0.18717 0.51905 0.71789 0.54313 0.857 1244.721 0.02390
-0.45973 -0.18737 0.51960 0.71864 0.54502 1.001 1244.750 0.02392
-0.46021 -0.18756 0.52014 0.71939 0.54692 0.963 1244.780 0.02395
-0.46069 -0.18776 0.52068 0.72014 0.54882 0.962 1244.810 0.02397
-0.46117 -0.18796 0.52123 0.72089 0.55071 1.016 1244.840 0.02400
-0.46165 -0.18815 0.52177 0.72164 0.55261 0.951 1244.870 0.02402
-0.46213 -0.18835 0.52231 0.72240 0.55450 1.049 1244.900 0.02404
-0.46261 -0.18854 0.52286 0.72315 0.55640 0.812 1244.930 0.02407
-0.46310 -0.18874 0.52340 0.72390 0.55829 0.812 1244.960 0.02409
-0.46358 -0.18894 0.52395 0.72465 0.56019 0.922 1244.989 0.02412
-0.46406 -0.18913 0.52449 0.72540 0.56209 0.923 1245.019 0.02414
-0.46454 -0.18933 0.52503 0.72615 0.56398 1.107 1245.049 0.02417
-0.46502 -0.18952 0.52558 0.72691 0.56588 1.034 1245.079 0.02419
-0.46550 -0.18972 0.52612 0.72766 0.56778 0.853 1245.109 0.02422
-0.46598 -0.18992 0.52666 0.72841 0.56967 0.632 1245.139 0.02424
-0.46646 -0.19011 0.52721 0.72916 0.57157 1.145 1245.169 0.02427
-0.46694 -0.19031 0.52775 0.72991 0.57347 0.742 1245.199 0.02429
-0.46742 -0.19050 0.52829 0.73066 0.57536 0.962 1245.229 0.02431
