x y z dist_scaled dist_frac flux_norm wavelength redshift
0.22649 -0.21524 0.39366 0.50258 0.00000 1.117 1236.115 0.01682
0.22682 -0.21556 0.39424 0.50333 0.00188 1.026 1236.145 0.01684
0.22716 -0.21588 0.39482 0.50407 0.00375 1.173 1236.175 0.01687
0.22749 -0.21619 0.39540 0.50481 0.00563 1.070 1236.205 0.01689
0.22783 -0.21651 0.39599 0.50556 0.00751 1.047 1236.235 0.01692
0.22816 -0.21683 0.39657 0.50630 0.00938 1.115 1236.265 0.01694
0.22850 -0.21715 0.39715 0.50705 0.01126 0.921 1236.295 0.01697
0.22883 -0.21747 0.39773 0.50779 0.01313 0.887 1236.325 0.01699
0.22917 -0.21779 0.39832 0.50853 0.01501 1.012 1236.355 0.01701
0.22951 -0.21811 0.39890 0.50928 0.01689 0.911 1236.384 0.01704
0.22984 -0.21842 0.39948 0.51002 0.01876 1.001 1236.414 0.01706
0.23018 -0.21874 0.40006 0.51077 0.02064 1.148 1236.444 0.01709
0.23051 -0.21906 0.40065 0.51151 0.02252 1.035 1236.474 0.01711
0.23085 -0.21938 0.40123 0.51225 0.02440 0.966 1236.504 0.01714
0.23118 -0.21970 0.40181 0.51300 0.02627 1.055 1236.534 0.01716
0.23152 -0.22002 0.40240 0.51374 0.02815 1.169 1236.564 0.01719
0.23185 -0.22034 0.40298 0.51449 0.03003 1.123 1236.594 0.01721
0.23219 -0.22066 0.40356 0.51523 0.03190 0.999 1236.623 0.01724
0.23252 -0.22097 0.40414 0.51597 0.03378 1.032 1236.653 0.01726
0.23286 -0.22129 0.40473 0.51672 0.03566 0.975 1236.683 0.01729
0.23319 -0.22161 0.40531 0.51746 0.03754 1.167 1236.713 0.01731
0.23353 -0.22193 0.40589 0.51821 0.03941 1.009 1236.743 0.01733
0.23386 -0.22225 0.40648 0.51895 0.04129 1.031 1236.773 0.01736
0.23420 -0.22257 0.40706 0.51970 0.04317 0.986 1236.803 0.01738
0.23454 -0.22289 0.40764 0.52044 0.04505 1.064 1236.833 0.01741
0.23487 -0.22321 0.40823 0.52118 0.04692 1.053 1236.862 0.01743
0.23521 -0.22352 0.40881 0.52193 0.04880 0.837 1236.892 0.01746
0.23554 -0.22384 0.40939 0.52267 0.05068 0.848 1236.922 0.01748
0.23588 -0.22416 0.40997 0.52342 0.05256 0.791 1236.952 0.01751
0.23621 -0.22448 0.41056 0.52416 0.05444 0.882 1236.982 0.01753
0.23655 -0.22480 0.41114 0.52491 0.05631 1.005 1237.012 0.01756
0.23688 -0.22512 0.41172 0.52565 0.05819 0.914 1237.042 0.01758
0.23722 -0.22544 0.41231 0.52640 0.06007 0.959 1237.072 0.01760
0.23756 -0.22576 0.41289 0.52714 0.06195 1.015 1237.101 0.01763
0.23789 -0.22607 0.41347 0.52788 0.06383 1.014 1237.131 0.01765
0.23823 -0.22639 0.41406 0.52863 0.06571 0.844 1237.161 0.01768
0.23856 -0.22671 0.41464 0.52937 0.06758 0.922 1237.191 0.01770
0.23890 -0.22703 0.41522 0.53012 0.06946 1.057 1237.221 0.01773
0.23923 -0.22735 0.41581 0.53086 0.07134 0.921 1237.251 0.01775
0.23957 -0.22767 0.41639 0.53161 0.07322 0.910 1237.281 0.01778
0.23990 -0.22799 0.41697 0.53235 0.07510 0.864 1237.311 0.01780
0.24024 -0.22831 0.41756 0.53310 0.07698 1.176 1237.341 0.01783
0.24058 -0.22863 0.41814 0.53384 0.07886 0.975 1237.370 0.01785
0.24091 -0.22895 0.41872 0.53459 0.08074 0.962 1237.400 0.01788
0.24125 -0.22926 0.41931 0.53533 0.08261 0.962 1237.430 0.01790
0.24158 -0.22958 0.41989 0.53608 0.08449 0.782 1237.460 0.01792
0.24192 -0.22990 0.42047 0.53682 0.08637 0.961 1237.490 0.01795
0.24225 -0.23022 0.42106 0.53757 0.08825 0.982 1237.520 0.01797
0.24259 -0.23054 0.42164 0.53831 0.09013 0.947 1237.550 0.01800
0.24293 -0.23086 0.42222 0.53906 0.09201 1.215 1237.580 0.01802
0.24326 -0.23118 0.42281 0.53980 0.09389 0.880 1237.609 0.01805
0.24360 -0.23150 0.42339 0.54055 0.09577 0.980 1237.639 0.01807
0.24393 -0.23182 0.42398 0.54129 0.09765 1.058 1237.669 0.01810
0.24427 -0.23214 0.42456 0.54204 0.09953 1.001 1237.699 0.01812
0.24460 -0.23246 0.42514 0.54278 0.10141 0.978 1237.729 0.01815
0.24494 -0.23277 0.42573 0.54353 0.10329 0.833 1237.759 0.01817
0.24528 -0.23309 0.42631 0.54427 0.10517 0.810 1237.789 0.01819
0.24561 -0.23341 0.42689 0.54502 0.10705 1.176 1237.819 0.01822
0.24595 -0.23373 0.42748 0.54576 0.10893 1.131 1237.848 0.01824
0.24628 -0.23405 0.42806 0.54651 0.11081 1.032 1237.878 0.01827
0.24662 -0.23437 0.42864 0.54725 0.11269 0.954 1237.908 0.01829
0.24696 -0.23469 0.42923 0.54800 0.11457 0.940 1237.938 0.01832
0.24729 -0.23501 0.42981 0.54874 0.11645 0.986 1237.968 0.01834
0.24763 -0.23533 0.43040 0.54949 0.11833 1.141 1237.998 0.01837
0.24796 -0.23565 0.43098 0.55024 0.12021 1.118 1238.028 0.01839
0.24830 -0.23597 0.43156 0.55098 0.12209 1.007 1238.058 0.01842
0.24864 -0.23629 0.43215 0.55173 0.12397 1.105 1238.087 0.01844
0.24897 -0.23660 0.43273 0.55247 0.12585 0.971 1238.117 0.01847
0.24931 -0.23692 0.43332 0.55322 0.12773 1.005 1238.147 0.01849
0.24964 -0.23724 0.43390 0.55396 0.12961 1.027 1238.177 0.01851
0.24998 -0.23756 0.43448 0.55471 0.13149 0.928 1238.207 0.01854
0.25032 -0.23788 0.43507 0.55545 0.13338 0.971 1238.237 0.01856
0.25065 -0.23820 0.43565 0.55620 0.13526 0.981 1238.267 0.01859
0.25099 -0.23852 0.43624 0.55695 0.13714 0.938 1238.297 0.01861
0.25132 -0.23884 0.43682 0.55769 0.13902 0.937 1238.327 0.01864
0.25166 -0.23916 0.43740 0.55844 0.14090 0.926 1238.356 0.01866
0.25200 -0.23948 0.43799 0.55918 0.14278 0.826 1238.386 0.01869
0.25233 -0.23980 0.43857 0.55993 0.14466 1.001 1238.416 0.01871
0.25267 -0.24012 0.43916 0.56067 0.14654 0.903 1238.446 0.01874
0.25300 -0.24044 0.43974 0.56142 0.14843 1.089 1238.476 0.01876
0.25334 -0.24076 0.44033 0.56217 0.15031 1.177 1238.506 0.01878
0.25368 -0.24108 0.44091 0.56291 0.15219 0.945 1238.536 0.01881
0.25401 -0.24140 0.44149 0.56366 0.15407 0.978 1238.566 0.01883
0.25435 -0.24171 0.44208 0.56440 0.15595 0.955 1238.595 0.01886
0.25468 -0.24203 0.44266 0.56515 0.15783 0.999 1238.625 0.01888
0.25502 -0.24235 0.44325 0.56590 0.15972 0.932 1238.655 0.01891
0.25536 -0.24267 0.44383 0.56664 0.16160 1.183 1238.685 0.01893
0.25569 -0.24299 0.44442 0.56739 0.16348 1.062 1238.715 0.01896
0.25603 -0.24331 0.44500 0.56813 0.16536 0.986 1238.745 0.01898
0.25637 -0.24363 0.44558 0.56888 0.16724 0.974 1238.775 0.01901
0.25670 -0.24395 0.44617 0.56963 0.16913 1.179 1238.805 0.01903
0.25704 -0.24427 0.44675 0.57037 0.17101 1.104 1238.834 0.01905
0.25737 -0.24459 0.44734 0.57112 0.17289 1.070 1238.864 0.01908
0.25771 -0.24491 0.44792 0.57186 0.17477 0.872 1238.894 0.01910
0.25805 -0.24523 0.44851 0.57261 0.17665 1.047 1238.924 0.01913
0.25838 -0.24555 0.44909 0.57336 0.17854 1.047 1238.954 0.01915
0.25872 -0.24587 0.44968 0.57410 0.18042 0.784 1238.984 0.01918
0.25906 -0.24619 0.45026 0.57485 0.18230 1.066 1239.014 0.01920
0.25939 -0.24651 0.45084 0.57560 0.18419 0.914 1239.044 0.01923
0.25973 -0.24683 0.45143 0.57634 0.18607 0.968 1239.073 0.01925
0.26006 -0.24715 0.45201 0.57709 0.18795 0.826 1239.103 0.01928
0.26040 -0.24747 0.45260 0.57784 0.18983 0.847 1239.133 0.01930
0.26074 -0.24779 0.45318 0.57858 0.19172 1.010 1239.163 0.01933
0.26107 -0.24811 0.45377 0.57933 0.19360 0.922 1239.193 0.01935
0.26141 -0.24843 0.45435 0.58007 0.19548 0.933 1239.223 0.01937
0.26175 -0.24875 0.45494 0.58082 0.19737 0.921 1239.253 0.01940
0.26208 -0.24907 0.45552 0.58157 0.19925 0.953 1239.283 0.01942
0.26242 -0.24939 0.45611 0.58231 0.20113 0.931 1239.313 0.01945
0.26276 -0.24971 0.45669 0.58306 0.20302 0.865 1239.342 0.01947
0.26309 -0.25002 0.45728 0.58381 0.20490 0.854 1239.372 0.01950
0.26343 -0.25034 0.45786 0.58455 0.20678 0.897 1239.402 0.01952
0.26377 -0.25066 0.45845 0.58530 0.20867 1.164 1239.432 0.01955
0.26410 -0.25098 0.45903 0.58605 0.21055 1.057 1239.462 0.01957
0.26444 -0.25130 0.45962 0.58679 0.21243 0.949 1239.492 0.01960
0.26478 -0.25162 0.46020 0.58754 0.21432 1.078 1239.522 0.01962
0.26511 -0.25194 0.46079 0.58829 0.21620 0.798 1239.552 0.01964
0.26545 -0.25226 0.46137 0.58904 0.21809 0.979 1239.581 0.01967
0.26578 -0.25258 0.46196 0.58978 0.21997 1.150 1239.611 0.01969
0.26612 -0.25290 0.46254 0.59053 0.22185 0.947 1239.641 0.01972
0.26646 -0.25322 0.46313 0.59128 0.22374 0.774 1239.671 0.01974
0.26679 -0.25354 0.46371 0.59202 0.22562 1.095 1239.701 0.01977
0.26713 -0.25386 0.46430 0.59277 0.22751 0.923 1239.731 0.01979
0.26747 -0.25418 0.46488 0.59352 0.22939 0.997 1239.761 0.01982
0.26780 -0.25450 0.46547 0.59426 0.23128 0.869 1239.791 0.01984
0.26814 -0.25482 0.46605 0.59501 0.23316 1.029 1239.820 0.01987
0.26848 -0.25514 0.46664 0.59576 0.23504 0.986 1239.850 0.01989
0.26881 -0.25546 0.46722 0.59650 0.23693 0.749 1239.880 0.01992
0.26915 -0.25578 0.46781 0.59725 0.23881 0.866 1239.910 0.01994
0.26949 -0.25610 0.46839 0.59800 0.24070 0.783 1239.940 0.01996
0.26982 -0.25642 0.46898 0.59875 0.24258 0.614 1239.970 0.01999
0.27016 -0.25674 0.46956 0.59949 0.24447 1.027 1240.000 0.02001
0.27050 -0.25706 0.47015 0.60024 0.24635 0.879 1240.030 0.02004
0.27083 -0.25738 0.47073 0.60099 0.24824 0.803 1240.059 0.02006
0.27117 -0.25770 0.47132 0.60174 0.25012 1.080 1240.089 0.02009
0.27151 -0.25802 0.47190 0.60248 0.25201 0.864 1240.119 0.02011
0.27185 -0.25834 0.47249 0.60323 0.25389 0.887 1240.149 0.02014
0.27218 -0.25866 0.47307 0.60398 0.25578 0.816 1240.179 0.02016
0.27252 -0.25898 0.47366 0.60472 0.25766 0.961 1240.209 0.02019
0.27286 -0.25930 0.47424 0.60547 0.25955 0.929 1240.239 0.02021
0.27319 -0.25962 0.47483 0.60622 0.26144 0.809 1240.269 0.02023
0.27353 -0.25994 0.47542 0.60697 0.26332 0.807 1240.299 0.02026
0.27387 -0.26026 0.47600 0.60771 0.26521 1.050 1240.328 0.02028
0.27420 -0.26058 0.47659 0.60846 0.26709 1.076 1240.358 0.02031
0.27454 -0.26090 0.47717 0.60921 0.26898 0.864 1240.388 0.02033
0.27488 -0.26122 0.47776 0.60996 0.27086 0.846 1240.418 0.02036
0.27521 -0.26154 0.47834 0.61070 0.27275 0.981 1240.448 0.02038
0.27555 -0.26186 0.47893 0.61145 0.27464 0.969 1240.478 0.02041
0.27589 -0.26218 0.47951 0.61220 0.27652 0.948 1240.508 0.02043
0.27622 -0.26250 0.48010 0.61295 0.27841 1.042 1240.538 0.02046
0.27656 -0.26282 0.48069 0.61370 0.28029 0.862 1240.567 0.02048
0.27690 -0.26314 0.48127 0.61444 0.28218 0.957 1240.597 0.02050
0.27724 -0.26347 0.48186 0.61519 0.28407 0.935 1240.627 0.02053
0.27757 -0.26379 0.48244 0.61594 0.28595 0.914 1240.657 0.02055
0.27791 -0.26411 0.48303 0.61669 0.28784 1.059 1240.687 0.02058
0.27825 -0.26443 0.48361 0.61743 0.28973 0.755 1240.717 0.02060
0.27858 -0.26475 0.48420 0.61818 0.29161 0.964 1240.747 0.02063
0.27892 -0.26507 0.48479 0.61893 0.29350 0.860 1240.777 0.02065
0.27926 -0.26539 0.48537 0.61968 0.29539 0.983 1240.806 0.02068
0.27959 -0.26571 0.48596 0.62043 0.29727 0.982 1240.836 0.02070
0.27993 -0.26603 0.48654 0.62117 0.29916 1.137 1240.866 0.02073
0.28027 -0.26635 0.48713 0.62192 0.30105 1.074 1240.896 0.02075
0.28061 -0.26667 0.48772 0.62267 0.30293 0.959 1240.926 0.02078
0.28094 -0.26699 0.48830 0.62342 0.30482 1.342 1240.956 0.02080
0.28128 -0.26731 0.48889 0.62417 0.30671 1.041 1240.986 0.02082
0.28162 -0.26763 0.48947 0.62491 0.30859 1.100 1241.016 0.02085
0.28195 -0.26795 0.49006 0.62566 0.31048 0.830 1241.045 0.02087
0.28229 -0.26827 0.49065 0.62641 0.31237 0.912 1241.075 0.02090
0.28263 -0.26859 0.49123 0.62716 0.31426 1.027 1241.105 0.02092
0.28297 -0.26891 0.49182 0.62791 0.31614 0.985 1241.135 0.02095
0.28330 -0.26923 0.49240 0.62866 0.31803 1.202 1241.165 0.02097
0.28364 -0.26955 0.49299 0.62940 0.31992 0.890 1241.195 0.02100
0.28398 -0.26987 0.49358 0.63015 0.32181 1.023 1241.225 0.02102
0.28431 -0.27019 0.49416 0.63090 0.32369 1.158 1241.255 0.02105
0.28465 -0.27051 0.49475 0.63165 0.32558 0.898 1241.285 0.02107
0.28499 -0.27083 0.49533 0.63240 0.32747 1.115 1241.314 0.02109
0.28533 -0.27115 0.49592 0.63315 0.32936 0.887 1241.344 0.02112
0.28566 -0.27147 0.49651 0.63389 0.33125 1.216 1241.374 0.02114
0.28600 -0.27180 0.49709 0.63464 0.33313 0.999 1241.404 0.02117
0.28634 -0.27212 0.49768 0.63539 0.33502 1.090 1241.434 0.02119
0.28668 -0.27244 0.49827 0.63614 0.33691 0.886 1241.464 0.02122
0.28701 -0.27276 0.49885 0.63689 0.33880 0.873 1241.494 0.02124
0.28735 -0.27308 0.49944 0.63764 0.34069 1.069 1241.524 0.02127
0.28769 -0.27340 0.50002 0.63838 0.34258 0.898 1241.553 0.02129
0.28803 -0.27372 0.50061 0.63913 0.34446 1.072 1241.583 0.02132
0.28836 -0.27404 0.50120 0.63988 0.34635 0.956 1241.613 0.02134
0.28870 -0.27436 0.50178 0.64063 0.34824 0.950 1241.643 0.02137
0.28904 -0.27468 0.50237 0.64138 0.35013 0.936 1241.673 0.02139
0.28937 -0.27500 0.50296 0.64213 0.35202 0.914 1241.703 0.02141
0.28971 -0.27532 0.50354 0.64288 0.35391 1.079 1241.733 0.02144
0.29005 -0.27564 0.50413 0.64363 0.35580 1.072 1241.763 0.02146
0.29039 -0.27596 0.50472 0.64437 0.35769 0.987 1241.792 0.02149
0.29072 -0.27628 0.50530 0.64512 0.35957 1.022 1241.822 0.02151
0.29106 -0.27660 0.50589 0.64587 0.36146 0.852 1241.852 0.02154
0.29140 -0.27693 0.50648 0.64662 0.36335 0.842 1241.882 0.02156
0.29174 -0.27725 0.50706 0.64737 0.36524 1.080 1241.912 0.02159
0.29207 -0.27757 0.50765 0.64812 0.36713 1.050 1241.942 0.02161
0.29241 -0.27789 0.50824 0.64887 0.36902 1.155 1241.972 0.02164
0.29275 -0.27821 0.50882 0.64962 0.37091 1.060 1242.002 0.02166
0.29309 -0.27853 0.50941 0.65037 0.37280 0.955 1242.031 0.02168
0.29342 -0.27885 0.51000 0.65111 0.37469 0.869 1242.061 0.02171
0.29376 -0.27917 0.51058 0.65186 0.37658 1.170 1242.091 0.02173
0.29410 -0.27949 0.51117 0.65261 0.37847 0.998 1242.121 0.02176
0.29444 -0.27981 0.51176 0.65336 0.38036 0.807 1242.151 0.02178
0.29477 -0.28013 0.51234 0.65411 0.38225 0.987 1242.181 0.02181
0.29511 -0.28045 0.51293 0.65486 0.38414 0.835 1242.211 0.02183
0.29545 -0.28078 0.51352 0.65561 0.38603 1.226 1242.241 0.02186
0.29579 -0.28110 0.51410 0.65636 0.38792 1.025 1242.271 0.02188
0.29613 -0.28142 0.51469 0.65711 0.38981 1.083 1242.300 0.02191
0.29646 -0.28174 0.51528 0.65786 0.39170 1.054 1242.330 0.02193
0.29680 -0.28206 0.51586 0.65861 0.39359 1.012 1242.360 0.02196
0.29714 -0.28238 0.51645 0.65936 0.39548 1.110 1242.390 0.02198
0.29748 -0.28270 0.51704 0.66011 0.39737 0.990 1242.420 0.02200
0.29781 -0.28302 0.51762 0.66085 0.39926 1.099 1242.450 0.02203
0.29815 -0.28334 0.51821 0.66160 0.40115 0.977 1242.480 0.02205
0.29849 -0.28366 0.51880 0.66235 0.40304 0.987 1242.510 0.02208
0.29883 -0.28398 0.51939 0.66310 0.40493 0.976 1242.539 0.02210
0.29916 -0.28431 0.51997 0.66385 0.40682 1.065 1242.569 0.02213
0.29950 -0.28463 0.52056 0.66460 0.40871 0.993 1242.599 0.02215
0.29984 -0.28495 0.52115 0.66535 0.41060 1.103 1242.629 0.02218
0.30018 -0.28527 0.52173 0.66610 0.41249 0.817 1242.659 0.02220
0.30052 -0.28559 0.52232 0.66685 0.41438 1.013 1242.689 0.02223
0.30085 -0.28591 0.52291 0.66760 0.41628 1.069 1242.719 0.02225
0.30119 -0.28623 0.52350 0.66835 0.41817 1.161 1242.749 0.02227
0.30153 -0.28655 0.52408 0.66910 0.42006 1.006 1242.778 0.02230
0.30187 -0.28687 0.52467 0.66985 0.42195 0.822 1242.808 0.02232
0.30221 -0.28719 0.52526 0.67060 0.42384 1.025 1242.838 0.02235
0.30254 -0.28752 0.52584 0.67135 0.42573 1.071 1242.868 0.02237
0.30288 -0.28784 0.52643 0.67210 0.42762 0.895 1242.898 0.02240
0.30322 -0.28816 0.52702 0.67285 0.42951 0.962 1242.928 0.02242
0.30356 -0.28848 0.52761 0.67360 0.43141 0.968 1242.958 0.02245
0.30389 -0.28880 0.52819 0.67435 0.43330 0.870 1242.988 0.02247
0.30423 -0.28912 0.52878 0.67510 0.43519 1.051 1243.017 0.02250
0.30457 -0.28944 0.52937 0.67585 0.43708 0.881 1243.047 0.02252
0.30491 -0.28976 0.52996 0.67660 0.43897 0.912 1243.077 0.02254
0.30525 -0.29008 0.53054 0.67735 0.44087 0.912 1243.107 0.02257
0.30558 -0.29041 0.53113 0.67810 0.44276 1.157 1243.137 0.02259
0.30592 -0.29073 0.53172 0.67885 0.44465 0.968 1243.167 0.02262
0.30626 -0.29105 0.53231 0.67960 0.44654 1.058 1243.197 0.02264
0.30660 -0.29137 0.53289 0.68035 0.44843 0.960 1243.227 0.02267
0.30694 -0.29169 0.53348 0.68110 0.45033 1.076 1243.257 0.02269
0.30727 -0.29201 0.53407 0.68185 0.45222 1.006 1243.286 0.02272
0.30761 -0.29233 0.53466 0.68260 0.45411 0.976 1243.316 0.02274
0.30795 -0.29265 0.53524 0.68335 0.45600 0.819 1243.346 0.02277
0.30829 -0.29298 0.53583 0.68410 0.45790 1.023 1243.376 0.02279
0.30863 -0.29330 0.53642 0.68485 0.45979 1.031 1243.406 0.02282
0.30897 -0.29362 0.53701 0.68560 0.46168 0.971 1243.436 0.02284
0.30930 -0.29394 0.53759 0.68635 0.46357 0.961 1243.466 0.02286
0.30964 -0.29426 0.53818 0.68710 0.46547 1.010 1243.496 0.02289
0.30998 -0.29458 0.53877 0.68785 0.46736 0.872 1243.525 0.02291
0.31032 -0.29490 0.53936 0.68860 0.46925 0.950 1243.555 0.02294
0.31066 -0.29523 0.53994 0.68935 0.47114 0.842 1243.585 0.02296
0.31099 -0.29555 0.54053 0.69010 0.47304 0.996 1243.615 0.02299
0.31133 -0.29587 0.54112 0.69085 0.47493 0.985 1243.645 0.02301
0.31167 -0.29619 0.54171 0.69160 0.47682 0.936 1243.675 0.02304
0.31201 -0.29651 0.54230 0.69235 0.47872 0.831 1243.705 0.02306
0.31235 -0.29683 0.54288 0.69310 0.48061 1.091 1243.735 0.02309
0.31269 -0.29715 0.54347 0.69385 0.48250 0.929 1243.764 0.02311
0.31302 -0.29748 0.54406 0.69461 0.48440 0.856 1243.794 0.02313
0.31336 -0.29780 0.54465 0.69536 0.48629 0.993 1243.824 0.02316
0.31370 -0.29812 0.54524 0.69611 0.48818 0.889 1243.854 0.02318
0.31404 -0.29844 0.54582 0.69686 0.49008 0.947 1243.884 0.02321
0.31438 -0.29876 0.54641 0.69761 0.49197 1.134 1243.914 0.02323
0.31471 -0.29908 0.54700 0.69836 0.49387 1.009 1243.944 0.02326
0.31505 -0.29940 0.54759 0.69911 0.49576 0.973 1243.974 0.02328
0.31539 -0.29973 0.54818 0.69986 0.49765 0.956 1244.003 0.02331
0.31573 -0.30005 0.54876 0.70061 0.49955 1.033 1244.033 0.02333
0.31607 -0.30037 0.54935 0.70136 0.50144 0.998 1244.063 0.02336
0.31641 -0.30069 0.54994 0.70211 0.50334 1.280 1244.093 0.02338
0.31674 -0.30101 0.55053 0.70286 0.50523 1.004 1244.123 0.02341
0.31708 -0.30133 0.55112 0.70361 0.50712 0.987 1244.153 0.02343
0.31742 -0.30166 0.55170 0.70437 0.50902 0.890 1244.183 0.02345
0.31776 -0.30198 0.55229 0.70512 0.51091 1.117 1244.213 0.02348
0.31810 -0.30230 0.55288 0.70587 0.51281 0.917 1244.243 0.02350
0.31844 -0.30262 0.55347 0.70662 0.51470 0.935 1244.272 0.02353
0.31878 -0.30294 0.55406 0.70737 0.51660 1.020 1244.302 0.02355
0.31911 -0.30326 0.55465 0.70812 0.51849 1.056 1244.332 0.02358
0.31945 -0.30359 0.55523 0.70887 0.52039 1.130 1244.362 0.02360
0.31979 -0.30391 0.55582 0.70962 0.52228 0.923 1244.392 0.02363
0.32013 -0.30423 0.55641 0.71037 0.52418 1.118 1244.422 0.02365
0.32047 -0.30455 0.55700 0.71112 0.52607 0.920 1244.452 0.02368
0.32081 -0.30487 0.55759 0.71188 0.52797 1.004 1244.482 0.02370
0.32115 -0.30519 0.55818 0.71263 0.52986 1.181 1244.511 0.02372
0.32148 -0.30552 0.55876 0.71338 0.53176 1.058 1244.541 0.02375
0.32182 -0.30584 0.55935 0.71413 0.53365 1.077 1244.571 0.02377
0.32216 -0.30616 0.55994 0.71488 0.53555 1.010 1244.601 0.02380
0.32250 -0.30648 0.56053 0.71563 0.53744 1.064 1244.631 0.02382
0.32284 -0.30680 0.56112 0.71638 0.53934 0.906 1244.661 0.02385
0.32318 -0.30712 0.56171 0.71714 0.54123 1.016 1244.691 0.02387
0.32352 -0.30745 0.56230 0.71789 0.54313 1.172 1244.721 0.02390
0.32385 -0.30777 0.56288 0.71864 0.54502 0.893 1244.750 0.02392
0.32419 -0.30809 0.56347 0.71939 0.54692 1.077 1244.780 0.02395
0.32453 -0.30841 0.56406 0.72014 0.54882 1.050 1244.810 0.02397
0.32487 -0.30873 0.56465 0.72089 0.55071 1.093 1244.840 0.02400
0.32521 -0.30906 0.56524 0.72164 0.55261 1.214 1244.870 0.02402
0.32555 -0.30938 0.56583 0.72240 0.55450 0.953 1244.900 0.02404
0.32589 -0.30970 0.56642 0.72315 0.55640 1.211 1244.930 0.02407
0.32622 -0.31002 0.56700 0.72390 0.55829 1.098 1244.960 0.02409
0.32656 -0.31034 0.56759 0.72465 0.56019 0.950 1244.989 0.02412
0.32690 -0.31066 0.56818 0.72540 0.56209 0.931 1245.019 0.02414
0.32724 -0.31099 0.56877 0.72615 0.56398 0.976 1245.049 0.02417
0.32758 -0.31131 0.56936 0.72691 0.56588 0.744 1245.079 0.02419
0.32792 -0.31163 0.56995 0.72766 0.56778 1.138 1245.109 0.02422
0.32826 -0.31195 0.57054 0.72841 0.56967 0.945 1245.139 0.02424
0.32860 -0.31227 0.57113 0.72916 0.57157 1.018 1245.169 0.02427
0.32893 -0.31260 0.57172 0.72991 0.57347 1.100 1245.199 0.02429
0.32927 -0.31292 0.57230 0.73066 0.57536 0.988 1245.229 0.02431
0.32961 -0.31324 0.57289 0.73142 0.57726 1.061 1245.258 0.02434
0.32995 -0.31356 0.57348 0.73217 0.57916 0.814 1245.288 0.02436
0.33029 -0.31388 0.57407 0.73292 0.58105 0.877 1245.318 0.02439
0.33063 -0.31421 0.57466 0.73367 0.58295 0.957 1245.348 0.02441
0.33097 -0.31453 0.57525 0.73442 0.58485 0.983 1245.378 0.02444
