x y z dist_scaled dist_frac flux_norm sig_norm wavelength redshift
-0.15792 0.30234 0.36855 0.50218 0.00000 0.929 0.019 1236.099 0.01680
-0.15816 0.30279 0.36910 0.50292 0.00188 0.923 0.019 1236.129 0.01683
-0.15839 0.30324 0.36964 0.50367 0.00375 0.914 0.019 1236.159 0.01685
-0.15863 0.30369 0.37019 0.50441 0.00563 0.983 0.020 1236.189 0.01688
-0.15886 0.30414 0.37074 0.50515 0.00750 0.971 0.019 1236.219 0.01690
-0.15909 0.30458 0.37128 0.50590 0.00938 0.916 0.019 1236.249 0.01693
-0.15933 0.30503 0.37183 0.50664 0.01126 0.968 0.019 1236.279 0.01695
-0.15956 0.30548 0.37238 0.50739 0.01313 1.019 0.020 1236.308 0.01698
-0.15980 0.30593 0.37292 0.50813 0.01501 1.005 0.020 1236.338 0.01700
-0.16003 0.30638 0.37347 0.50888 0.01689 0.952 0.019 1236.368 0.01703
-0.16026 0.30682 0.37401 0.50962 0.01876 0.949 0.019 1236.398 0.01705
-0.16050 0.30727 0.37456 0.51036 0.02064 0.958 0.019 1236.428 0.01708
-0.16073 0.30772 0.37511 0.51111 0.02252 0.956 0.019 1236.458 0.01710
-0.16097 0.30817 0.37565 0.51185 0.02440 1.013 0.020 1236.488 0.01712
-0.16120 0.30862 0.37620 0.51260 0.02627 0.995 0.020 1236.518 0.01715
-0.16143 0.30907 0.37675 0.51334 0.02815 1.017 0.020 1236.548 0.01717
-0.16167 0.30951 0.37729 0.51409 0.03003 0.974 0.019 1236.577 0.01720
-0.16190 0.30996 0.37784 0.51483 0.03190 0.978 0.019 1236.607 0.01722
-0.16214 0.31041 0.37838 0.51558 0.03378 0.969 0.019 1236.637 0.01725
-0.16237 0.31086 0.37893 0.51632 0.03566 0.966 0.019 1236.667 0.01727
-0.16261 0.31131 0.37948 0.51706 0.03754 0.975 0.019 1236.697 0.01730
-0.16284 0.31175 0.38002 0.51781 0.03941 0.945 0.019 1236.727 0.01732
-0.16307 0.31220 0.38057 0.51855 0.04129 0.985 0.019 1236.757 0.01735
-0.16331 0.31265 0.38112 0.51930 0.04317 0.944 0.019 1236.787 0.01737
-0.16354 0.31310 0.38166 0.52004 0.04505 0.971 0.019 1236.817 0.01740
-0.16378 0.31355 0.38221 0.52079 0.04692 0.951 0.019 1236.847 0.01742
-0.16401 0.31400 0.38276 0.52153 0.04880 0.955 0.019 1236.876 0.01744
-0.16424 0.31444 0.38330 0.52228 0.05068 0.971 0.019 1236.906 0.01747
-0.16448 0.31489 0.38385 0.52302 0.05256 0.949 0.019 1236.936 0.01749
-0.16471 0.31534 0.38440 0.52377 0.05444 0.973 0.019 1236.966 0.01752
-0.16495 0.31579 0.38494 0.52451 0.05631 0.969 0.019 1236.996 0.01754
-0.16518 0.31624 0.38549 0.52526 0.05819 1.013 0.019 1237.026 0.01757
-0.16542 0.31669 0.38604 0.52600 0.06007 1.027 0.020 1237.056 0.01759
-0.16565 0.31714 0.38658 0.52675 0.06195 1.025 0.019 1237.086 0.01762
-0.16588 0.31758 0.38713 0.52749 0.06383 0.995 0.019 1237.116 0.01764
-0.16612 0.31803 0.38768 0.52824 0.06571 0.982 0.019 1237.145 0.01767
-0.16635 0.31848 0.38822 0.52898 0.06758 0.975 0.019 1237.175 0.01769
-0.16659 0.31893 0.38877 0.52973 0.06946 0.989 0.019 1237.205 0.01771
-0.16682 0.31938 0.38932 0.53047 0.07134 1.008 0.019 1237.235 0.01774
-0.16706 0.31983 0.38986 0.53122 0.07322 1.001 0.019 1237.265 0.01776
-0.16729 0.32028 0.39041 0.53196 0.07510 1.028 0.019 1237.295 0.01779
-0.16752 0.32072 0.39096 0.53271 0.07698 1.006 0.019 1237.325 0.01781
-0.16776 0.32117 0.39150 0.53345 0.07886 1.011 0.019 1237.355 0.01784
-0.16799 0.32162 0.39205 0.53420 0.08074 0.997 0.019 1237.385 0.01786
-0.16823 0.32207 0.39260 0.53494 0.08261 0.980 0.019 1237.414 0.01789
-0.16846 0.32252 0.39315 0.53569 0.08449 1.020 0.019 1237.444 0.01791
-0.16870 0.32297 0.39369 0.53643 0.08637 1.031 0.019 1237.474 0.01794
-0.16893 0.32342 0.39424 0.53718 0.08825 1.015 0.019 1237.504 0.01796
-0.16916 0.32386 0.39479 0.53792 0.09013 1.043 0.019 1237.534 0.01799
-0.16940 0.32431 0.39533 0.53867 0.09201 1.045 0.019 1237.564 0.01801
-0.16963 0.32476 0.39588 0.53941 0.09389 1.015 0.019 1237.594 0.01803
-0.16987 0.32521 0.39643 0.54016 0.09577 0.989 0.019 1237.624 0.01806
-0.17010 0.32566 0.39697 0.54090 0.09765 0.952 0.018 1237.654 0.01808
-0.17034 0.32611 0.39752 0.54165 0.09953 0.969 0.019 1237.684 0.01811
-0.17057 0.32656 0.39807 0.54240 0.10141 1.007 0.019 1237.713 0.01813
-0.17081 0.32701 0.39862 0.54314 0.10329 0.971 0.019 1237.743 0.01816
-0.17104 0.32746 0.39916 0.54389 0.10517 0.956 0.018 1237.773 0.01818
-0.17127 0.32790 0.39971 0.54463 0.10705 0.982 0.019 1237.803 0.01821
-0.17151 0.32835 0.40026 0.54538 0.10893 0.999 0.019 1237.833 0.01823
-0.17174 0.32880 0.40080 0.54612 0.11081 0.999 0.019 1237.863 0.01826
-0.17198 0.32925 0.40135 0.54687 0.11269 0.978 0.019 1237.893 0.01828
-0.17221 0.32970 0.40190 0.54761 0.11457 0.973 0.018 1237.923 0.01830
-0.17245 0.33015 0.40245 0.54836 0.11645 0.954 0.018 1237.953 0.01833
-0.17268 0.33060 0.40299 0.54911 0.11833 0.997 0.019 1237.982 0.01835
-0.17292 0.33105 0.40354 0.54985 0.12021 0.975 0.018 1238.012 0.01838
-0.17315 0.33150 0.40409 0.55060 0.12209 0.974 0.018 1238.042 0.01840
-0.17339 0.33194 0.40464 0.55134 0.12397 0.972 0.018 1238.072 0.01843
-0.17362 0.33239 0.40518 0.55209 0.12585 0.973 0.018 1238.102 0.01845
-0.17385 0.33284 0.40573 0.55284 0.12773 0.943 0.018 1238.132 0.01848
-0.17409 0.33329 0.40628 0.55358 0.12961 0.922 0.018 1238.162 0.01850
-0.17432 0.33374 0.40683 0.55433 0.13149 0.923 0.018 1238.192 0.01853
-0.17456 0.33419 0.40737 0.55507 0.13337 0.903 0.018 1238.222 0.01855
-0.17479 0.33464 0.40792 0.55582 0.13526 0.896 0.018 1238.251 0.01858
-0.17503 0.33509 0.40847 0.55656 0.13714 0.908 0.018 1238.281 0.01860
-0.17526 0.33554 0.40901 0.55731 0.13902 0.890 0.017 1238.311 0.01862
-0.17550 0.33599 0.40956 0.55806 0.14090 0.921 0.018 1238.341 0.01865
-0.17573 0.33644 0.41011 0.55880 0.14278 0.878 0.017 1238.371 0.01867
-0.17597 0.33689 0.41066 0.55955 0.14466 0.881 0.017 1238.401 0.01870
-0.17620 0.33733 0.41121 0.56030 0.14654 0.868 0.017 1238.431 0.01872
-0.17643 0.33778 0.41175 0.56104 0.14842 0.892 0.017 1238.461 0.01875
-0.17667 0.33823 0.41230 0.56179 0.15031 0.888 0.017 1238.491 0.01877
-0.17690 0.33868 0.41285 0.56253 0.15219 0.864 0.017 1238.521 0.01880
-0.17714 0.33913 0.41340 0.56328 0.15407 0.814 0.017 1238.550 0.01882
-0.17737 0.33958 0.41394 0.56403 0.15595 0.856 0.017 1238.580 0.01885
-0.17761 0.34003 0.41449 0.56477 0.15783 0.805 0.016 1238.610 0.01887
-0.17784 0.34048 0.41504 0.56552 0.15971 0.838 0.017 1238.640 0.01889
-0.17808 0.34093 0.41559 0.56627 0.16160 0.865 0.017 1238.670 0.01892
-0.17831 0.34138 0.41613 0.56701 0.16348 0.869 0.017 1238.700 0.01894
-0.17855 0.34183 0.41668 0.56776 0.16536 0.866 0.017 1238.730 0.01897
-0.17878 0.34228 0.41723 0.56850 0.16724 0.847 0.017 1238.760 0.01899
-0.17902 0.34273 0.41778 0.56925 0.16912 0.858 0.017 1238.790 0.01902
-0.17925 0.34318 0.41833 0.57000 0.17101 0.867 0.017 1238.819 0.01904
-0.17949 0.34363 0.41887 0.57074 0.17289 0.932 0.018 1238.849 0.01907
-0.17972 0.34407 0.41942 0.57149 0.17477 0.915 0.017 1238.879 0.01909
-0.17996 0.34452 0.41997 0.57224 0.17665 0.960 0.018 1238.909 0.01912
-0.18019 0.34497 0.42052 0.57298 0.17854 0.944 0.018 1238.939 0.01914
-0.18043 0.34542 0.42107 0.57373 0.18042 0.924 0.017 1238.969 0.01917
-0.18066 0.34587 0.42161 0.57448 0.18230 0.951 0.018 1238.999 0.01919
-0.18089 0.34632 0.42216 0.57522 0.18418 0.947 0.018 1239.029 0.01921
-0.18113 0.34677 0.42271 0.57597 0.18607 0.952 0.018 1239.059 0.01924
-0.18136 0.34722 0.42326 0.57672 0.18795 0.984 0.018 1239.088 0.01926
-0.18160 0.34767 0.42381 0.57746 0.18983 1.000 0.018 1239.118 0.01929
-0.18183 0.34812 0.42435 0.57821 0.19172 0.971 0.018 1239.148 0.01931
-0.18207 0.34857 0.42490 0.57896 0.19360 0.980 0.018 1239.178 0.01934
-0.18230 0.34902 0.42545 0.57970 0.19548 0.965 0.018 1239.208 0.01936
-0.18254 0.34947 0.42600 0.58045 0.19737 1.018 0.018 1239.238 0.01939
-0.18277 0.34992 0.42655 0.58120 0.19925 0.989 0.018 1239.268 0.01941
-0.18301 0.35037 0.42709 0.58194 0.20113 1.009 0.018 1239.298 0.01944
-0.18324 0.35082 0.42764 0.58269 0.20302 0.966 0.018 1239.328 0.01946
-0.18348 0.35127 0.42819 0.58344 0.20490 0.973 0.018 1239.357 0.01949
-0.18371 0.35172 0.42874 0.58419 0.20678 0.962 0.018 1239.387 0.01951
-0.18395 0.35217 0.42929 0.58493 0.20867 1.023 0.018 1239.417 0.01953
-0.18418 0.35262 0.42983 0.58568 0.21055 1.007 0.018 1239.447 0.01956
-0.18442 0.35307 0.43038 0.58643 0.21243 0.991 0.018 1239.477 0.01958
-0.18465 0.35352 0.43093 0.58717 0.21432 1.000 0.018 1239.507 0.01961
-0.18489 0.35397 0.43148 0.58792 0.21620 1.013 0.018 1239.537 0.01963
-0.18512 0.35442 0.43203 0.58867 0.21809 0.997 0.018 1239.567 0.01966
-0.18536 0.35487 0.43258 0.58942 0.21997 0.947 0.017 1239.597 0.01968
-0.18559 0.35532 0.43312 0.59016 0.22185 1.009 0.018 1239.627 0.01971
-0.18583 0.35577 0.43367 0.59091 0.22374 1.000 0.018 1239.656 0.01973
-0.18606 0.35622 0.43422 0.59166 0.22562 1.013 0.018 1239.686 0.01976
-0.18630 0.35667 0.43477 0.59240 0.22751 0.991 0.018 1239.716 0.01978
-0.18653 0.35712 0.43532 0.59315 0.22939 0.959 0.017 1239.746 0.01980
-0.18677 0.35757 0.43587 0.59390 0.23127 0.981 0.017 1239.776 0.01983
-0.18700 0.35802 0.43642 0.59465 0.23316 0.982 0.017 1239.806 0.01985
-0.18724 0.35847 0.43696 0.59539 0.23504 0.953 0.017 1239.836 0.01988
-0.18747 0.35892 0.43751 0.59614 0.23693 0.970 0.017 1239.866 0.01990
-0.18771 0.35937 0.43806 0.59689 0.23881 0.993 0.018 1239.896 0.01993
-0.18794 0.35982 0.43861 0.59764 0.24070 0.972 0.017 1239.925 0.01995
-0.18818 0.36027 0.43916 0.59838 0.24258 0.969 0.017 1239.955 0.01998
-0.18841 0.36072 0.43971 0.59913 0.24447 0.957 0.017 1239.985 0.02000
-0.18865 0.36117 0.44026 0.59988 0.24635 0.988 0.017 1240.015 0.02003
-0.18888 0.36162 0.44080 0.60063 0.24824 0.960 0.017 1240.045 0.02005
-0.18912 0.36207 0.44135 0.60137 0.25012 0.940 0.017 1240.075 0.02008
-0.18935 0.36252 0.44190 0.60212 0.25201 0.984 0.017 1240.105 0.02010
-0.18959 0.36297 0.44245 0.60287 0.25389 0.982 0.017 1240.135 0.02012
-0.18982 0.36342 0.44300 0.60362 0.25578 1.000 0.017 1240.165 0.02015
-0.19006 0.36387 0.44355 0.60436 0.25766 0.989 0.017 1240.194 0.02017
-0.19029 0.36432 0.44410 0.60511 0.25955 1.007 0.017 1240.224 0.02020
-0.19053 0.36477 0.44465 0.60586 0.26143 0.984 0.017 1240.254 0.02022
-0.19076 0.36522 0.44519 0.60661 0.26332 1.013 0.017 1240.284 0.02025
-0.19100 0.36567 0.44574 0.60736 0.26521 1.005 0.017 1240.314 0.02027
-0.19123 0.36612 0.44629 0.60810 0.26709 0.995 0.017 1240.344 0.02030
-0.19147 0.36657 0.44684 0.60885 0.26898 1.036 0.018 1240.374 0.02032
-0.19171 0.36702 0.44739 0.60960 0.27086 1.036 0.018 1240.404 0.02035
-0.19194 0.36747 0.44794 0.61035 0.27275 1.006 0.017 1240.434 0.02037
-0.19218 0.36792 0.44849 0.61109 0.27463 1.053 0.018 1240.464 0.02039
-0.19241 0.36837 0.44904 0.61184 0.27652 1.060 0.018 1240.493 0.02042
-0.19265 0.36882 0.44959 0.61259 0.27841 1.030 0.017 1240.523 0.02044
-0.19288 0.36927 0.45013 0.61334 0.28029 1.006 0.017 1240.553 0.02047
-0.19312 0.36972 0.45068 0.61409 0.28218 1.038 0.018 1240.583 0.02049
-0.19335 0.37017 0.45123 0.61484 0.28407 1.011 0.017 1240.613 0.02052
-0.19359 0.37062 0.45178 0.61558 0.28595 1.030 0.017 1240.643 0.02054
-0.19382 0.37107 0.45233 0.61633 0.28784 1.044 0.018 1240.673 0.02057
-0.19406 0.37152 0.45288 0.61708 0.28972 1.048 0.018 1240.703 0.02059
-0.19429 0.37197 0.45343 0.61783 0.29161 1.041 0.017 1240.733 0.02062
-0.19453 0.37242 0.45398 0.61858 0.29350 1.036 0.017 1240.762 0.02064
-0.19476 0.37287 0.45453 0.61932 0.29538 0.992 0.017 1240.792 0.02067
-0.19500 0.37332 0.45508 0.62007 0.29727 0.977 0.017 1240.822 0.02069
-0.19523 0.37377 0.45563 0.62082 0.29916 0.965 0.017 1240.852 0.02071
-0.19547 0.37423 0.45617 0.62157 0.30105 0.949 0.017 1240.882 0.02074
-0.19570 0.37468 0.45672 0.62232 0.30293 0.922 0.016 1240.912 0.02076
-0.19594 0.37513 0.45727 0.62307 0.30482 0.867 0.016 1240.942 0.02079
-0.19618 0.37558 0.45782 0.62381 0.30671 0.856 0.016 1240.972 0.02081
-0.19641 0.37603 0.45837 0.62456 0.30859 0.914 0.016 1241.002 0.02084
-0.19665 0.37648 0.45892 0.62531 0.31048 0.911 0.016 1241.031 0.02086
-0.19688 0.37693 0.45947 0.62606 0.31237 0.962 0.017 1241.061 0.02089
-0.19712 0.37738 0.46002 0.62681 0.31426 1.023 0.017 1241.091 0.02091
-0.19735 0.37783 0.46057 0.62756 0.31614 0.994 0.017 1241.121 0.02094
-0.19759 0.37828 0.46112 0.62831 0.31803 1.009 0.017 1241.151 0.02096
-0.19782 0.37873 0.46167 0.62905 0.31992 1.011 0.017 1241.181 0.02099
-0.19806 0.37918 0.46222 0.62980 0.32181 1.024 0.017 1241.211 0.02101
-0.19829 0.37963 0.46277 0.63055 0.32369 1.038 0.017 1241.241 0.02103
-0.19853 0.38008 0.46332 0.63130 0.32558 1.027 0.017 1241.271 0.02106
-0.19877 0.38053 0.46387 0.63205 0.32747 1.009 0.017 1241.300 0.02108
-0.19900 0.38099 0.46442 0.63280 0.32936 1.017 0.017 1241.330 0.02111
-0.19924 0.38144 0.46496 0.63355 0.33124 1.014 0.017 1241.360 0.02113
-0.19947 0.38189 0.46551 0.63429 0.33313 0.986 0.017 1241.390 0.02116
-0.19971 0.38234 0.46606 0.63504 0.33502 1.051 0.017 1241.420 0.02118
-0.19994 0.38279 0.46661 0.63579 0.33691 1.005 0.017 1241.450 0.02121
-0.20018 0.38324 0.46716 0.63654 0.33880 1.000 0.017 1241.480 0.02123
-0.20041 0.38369 0.46771 0.63729 0.34069 1.065 0.017 1241.510 0.02126
-0.20065 0.38414 0.46826 0.63804 0.34257 1.036 0.017 1241.540 0.02128
-0.20088 0.38459 0.46881 0.63879 0.34446 1.017 0.017 1241.570 0.02130
-0.20112 0.38504 0.46936 0.63954 0.34635 1.004 0.017 1241.599 0.02133
-0.20136 0.38549 0.46991 0.64029 0.34824 1.040 0.017 1241.629 0.02135
-0.20159 0.38595 0.47046 0.64104 0.35013 1.002 0.017 1241.659 0.02138
-0.20183 0.38640 0.47101 0.64178 0.35202 0.993 0.017 1241.689 0.02140
-0.20206 0.38685 0.47156 0.64253 0.35391 1.021 0.017 1241.719 0.02143
-0.20230 0.38730 0.47211 0.64328 0.35580 1.031 0.017 1241.749 0.02145
-0.20253 0.38775 0.47266 0.64403 0.35768 1.003 0.017 1241.779 0.02148
-0.20277 0.38820 0.47321 0.64478 0.35957 0.996 0.016 1241.809 0.02150
-0.20300 0.38865 0.47376 0.64553 0.36146 0.987 0.016 1241.839 0.02153
-0.20324 0.38910 0.47431 0.64628 0.36335 1.011 0.017 1241.868 0.02155
-0.20348 0.38955 0.47486 0.64703 0.36524 1.037 0.017 1241.898 0.02158
-0.20371 0.39000 0.47541 0.64778 0.36713 0.990 0.016 1241.928 0.02160
-0.20395 0.39046 0.47596 0.64853 0.36902 0.983 0.016 1241.958 0.02162
-0.20418 0.39091 0.47651 0.64928 0.37091 0.969 0.016 1241.988 0.02165
-0.20442 0.39136 0.47706 0.65003 0.37280 1.000 0.016 1242.018 0.02167
-0.20465 0.39181 0.47761 0.65077 0.37469 0.975 0.016 1242.048 0.02170
-0.20489 0.39226 0.47816 0.65152 0.37658 0.974 0.016 1242.078 0.02172
-0.20513 0.39271 0.47871 0.65227 0.37847 0.994 0.016 1242.108 0.02175
-0.20536 0.39316 0.47926 0.65302 0.38036 0.977 0.016 1242.137 0.02177
-0.20560 0.39361 0.47981 0.65377 0.38225 1.011 0.016 1242.167 0.02180
-0.20583 0.39407 0.48036 0.65452 0.38414 0.981 0.016 1242.197 0.02182
-0.20607 0.39452 0.48091 0.65527 0.38603 0.973 0.016 1242.227 0.02185
-0.20630 0.39497 0.48146 0.65602 0.38792 0.958 0.016 1242.257 0.02187
-0.20654 0.39542 0.48201 0.65677 0.38981 0.952 0.016 1242.287 0.02189
-0.20678 0.39587 0.48256 0.65752 0.39170 0.957 0.016 1242.317 0.02192
-0.20701 0.39632 0.48311 0.65827 0.39359 0.983 0.016 1242.347 0.02194
-0.20725 0.39677 0.48366 0.65902 0.39548 0.961 0.016 1242.377 0.02197
-0.20748 0.39722 0.48421 0.65977 0.39737 0.967 0.016 1242.407 0.02199
-0.20772 0.39768 0.48476 0.66052 0.39926 0.938 0.016 1242.436 0.02202
-0.20795 0.39813 0.48531 0.66127 0.40115 0.927 0.016 1242.466 0.02204
-0.20819 0.39858 0.48586 0.66202 0.40304 0.973 0.016 1242.496 0.02207
-0.20843 0.39903 0.48641 0.66277 0.40493 0.928 0.016 1242.526 0.02209
-0.20866 0.39948 0.48696 0.66352 0.40682 0.980 0.016 1242.556 0.02212
-0.20890 0.39993 0.48751 0.66427 0.40871 0.967 0.016 1242.586 0.02214
-0.20913 0.40038 0.48806 0.66502 0.41060 0.980 0.016 1242.616 0.02217
-0.20937 0.40084 0.48861 0.66577 0.41249 1.008 0.016 1242.646 0.02219
-0.20960 0.40129 0.48916 0.66652 0.41438 0.984 0.016 1242.676 0.02221
-0.20984 0.40174 0.48971 0.66727 0.41627 0.962 0.016 1242.705 0.02224
-0.21008 0.40219 0.49026 0.66802 0.41817 1.003 0.016 1242.735 0.02226
-0.21031 0.40264 0.49081 0.66877 0.42006 1.002 0.016 1242.765 0.02229
-0.21055 0.40309 0.49136 0.66952 0.42195 0.996 0.016 1242.795 0.02231
-0.21078 0.40355 0.49192 0.67027 0.42384 0.987 0.016 1242.825 0.02234
-0.21102 0.40400 0.49247 0.67102 0.42573 1.011 0.016 1242.855 0.02236
-0.21126 0.40445 0.49302 0.67177 0.42762 0.994 0.016 1242.885 0.02239
-0.21149 0.40490 0.49357 0.67252 0.42951 0.960 0.016 1242.915 0.02241
-0.21173 0.40535 0.49412 0.67327 0.43141 0.964 0.016 1242.945 0.02244
-0.21196 0.40580 0.49467 0.67402 0.43330 0.963 0.016 1242.974 0.02246
-0.21220 0.40626 0.49522 0.67477 0.43519 0.969 0.016 1243.004 0.02249
-0.21244 0.40671 0.49577 0.67552 0.43708 0.965 0.016 1243.034 0.02251
-0.21267 0.40716 0.49632 0.67627 0.43897 0.948 0.015 1243.064 0.02253
-0.21291 0.40761 0.49687 0.67702 0.44086 0.959 0.016 1243.094 0.02256
-0.21314 0.40806 0.49742 0.67777 0.44276 0.953 0.015 1243.124 0.02258
-0.21338 0.40851 0.49797 0.67852 0.44465 0.973 0.016 1243.154 0.02261
-0.21362 0.40897 0.49852 0.67927 0.44654 0.968 0.016 1243.184 0.02263
-0.21385 0.40942 0.49907 0.68002 0.44843 0.975 0.016 1243.214 0.02266
-0.21409 0.40987 0.49962 0.68077 0.45032 0.990 0.016 1243.243 0.02268
-0.21432 0.41032 0.50017 0.68152 0.45222 1.032 0.016 1243.273 0.02271
-0.21456 0.41077 0.50073 0.68227 0.45411 1.014 0.016 1243.303 0.02273
-0.21480 0.41122 0.50128 0.68302 0.45600 1.022 0.016 1243.333 0.02276
-0.21503 0.41168 0.50183 0.68377 0.45789 1.018 0.016 1243.363 0.02278
-0.21527 0.41213 0.50238 0.68452 0.45979 0.988 0.016 1243.393 0.02280
-0.21550 0.41258 0.50293 0.68527 0.46168 0.974 0.015 1243.423 0.02283
-0.21574 0.41303 0.50348 0.68603 0.46357 0.986 0.016 1243.453 0.02285
-0.21598 0.41348 0.50403 0.68678 0.46546 1.028 0.016 1243.483 0.02288
-0.21621 0.41394 0.50458 0.68753 0.46736 0.980 0.015 1243.513 0.02290
-0.21645 0.41439 0.50513 0.68828 0.46925 1.024 0.016 1243.542 0.02293
-0.21668 0.41484 0.50568 0.68903 0.47114 0.983 0.015 1243.572 0.02295
-0.21692 0.41529 0.50623 0.68978 0.47304 1.003 0.016 1243.602 0.02298
-0.21716 0.41574 0.50679 0.69053 0.47493 1.012 0.016 1243.632 0.02300
-0.21739 0.41620 0.50734 0.69128 0.47682 0.992 0.015 1243.662 0.02303
-0.21763 0.41665 0.50789 0.69203 0.47872 0.996 0.016 1243.692 0.02305
-0.21786 0.41710 0.50844 0.69278 0.48061 1.019 0.016 1243.722 0.02308
-0.21810 0.41755 0.50899 0.69353 0.48250 1.010 0.016 1243.752 0.02310
-0.21834 0.41800 0.50954 0.69428 0.48440 1.008 0.016 1243.782 0.02312
-0.21857 0.41846 0.51009 0.69504 0.48629 1.009 0.016 1243.811 0.02315
-0.21881 0.41891 0.51064 0.69579 0.48818 0.991 0.015 1243.841 0.02317
-0.21905 0.41936 0.51119 0.69654 0.49008 1.022 0.016 1243.871 0.02320
-0.21928 0.41981 0.51175 0.69729 0.49197 0.974 0.015 1243.901 0.02322
-0.21952 0.42027 0.51230 0.69804 0.49386 0.962 0.015 1243.931 0.02325
-0.21975 0.42072 0.51285 0.69879 0.49576 0.983 0.015 1243.961 0.02327
-0.21999 0.42117 0.51340 0.69954 0.49765 1.007 0.015 1243.991 0.02330
-0.22023 0.42162 0.51395 0.70029 0.49955 1.013 0.015 1244.021 0.02332
-0.22046 0.42207 0.51450 0.70104 0.50144 0.998 0.015 1244.051 0.02335
-0.22070 0.42253 0.51505 0.70179 0.50333 1.018 0.015 1244.080 0.02337
-0.22093 0.42298 0.51560 0.70255 0.50523 0.996 0.015 1244.110 0.02339
-0.22117 0.42343 0.51616 0.70330 0.50712 0.999 0.015 1244.140 0.02342
-0.22141 0.42388 0.51671 0.70405 0.50902 0.986 0.015 1244.170 0.02344
-0.22164 0.42434 0.51726 0.70480 0.51091 1.021 0.015 1244.200 0.02347
-0.22188 0.42479 0.51781 0.70555 0.51281 0.994 0.015 1244.230 0.02349
-0.22212 0.42524 0.51836 0.70630 0.51470 0.997 0.015 1244.260 0.02352
-0.22235 0.42569 0.51891 0.70705 0.51660 1.012 0.015 1244.290 0.02354
-0.22259 0.42615 0.51946 0.70781 0.51849 1.019 0.015 1244.320 0.02357
-0.22283 0.42660 0.52002 0.70856 0.52038 1.004 0.015 1244.350 0.02359
-0.22306 0.42705 0.52057 0.70931 0.52228 1.019 0.015 1244.379 0.02362
-0.22330 0.42750 0.52112 0.71006 0.52417 1.025 0.015 1244.409 0.02364
-0.22353 0.42795 0.52167 0.71081 0.52607 0.990 0.015 1244.439 0.02367
-0.22377 0.42841 0.52222 0.71156 0.52796 0.990 0.015 1244.469 0.02369
-0.22401 0.42886 0.52277 0.71231 0.52986 0.979 0.015 1244.499 0.02371
-0.22424 0.42931 0.52332 0.71307 0.53175 1.013 0.015 1244.529 0.02374
-0.22448 0.42976 0.52388 0.71382 0.53365 1.014 0.015 1244.559 0.02376
