x y z dist_scaled dist_frac flux_norm sig_norm wavelength redshift
-0.02749 -0.15668 0.47674 0.50258 0.00000 1.072 0.101 1236.115 0.01682
-0.02753 -0.15691 0.47745 0.50333 0.00188 1.127 0.103 1236.145 0.01684
-0.02757 -0.15714 0.47815 0.50407 0.00375 0.974 0.096 1236.175 0.01687
-0.02761 -0.15738 0.47886 0.50481 0.00563 0.998 0.102 1236.205 0.01689
-0.02765 -0.15761 0.47957 0.50556 0.00751 1.006 0.098 1236.235 0.01692
-0.02769 -0.15784 0.48027 0.50630 0.00938 1.206 0.107 1236.265 0.01694
-0.02773 -0.15807 0.48098 0.50705 0.01126 0.982 0.102 1236.295 0.01697
-0.02777 -0.15830 0.48168 0.50779 0.01313 0.988 0.103 1236.325 0.01699
-0.02782 -0.15854 0.48239 0.50853 0.01501 0.921 0.094 1236.355 0.01701
-0.02786 -0.15877 0.48309 0.50928 0.01689 1.093 0.102 1236.384 0.01704
-0.02790 -0.15900 0.48380 0.51002 0.01876 0.903 0.093 1236.414 0.01706
-0.02794 -0.15923 0.48451 0.51077 0.02064 0.979 0.097 1236.444 0.01709
-0.02798 -0.15946 0.48521 0.51151 0.02252 0.950 0.101 1236.474 0.01711
-0.02802 -0.15970 0.48592 0.51225 0.02440 1.171 0.106 1236.504 0.01714
-0.02806 -0.15993 0.48662 0.51300 0.02627 1.009 0.098 1236.534 0.01716
-0.02810 -0.16016 0.48733 0.51374 0.02815 1.049 0.100 1236.564 0.01719
-0.02814 -0.16039 0.48803 0.51449 0.03003 1.068 0.101 1236.594 0.01721
-0.02818 -0.16062 0.48874 0.51523 0.03190 0.954 0.095 1236.623 0.01724
-0.02822 -0.16086 0.48945 0.51597 0.03378 0.906 0.099 1236.653 0.01726
-0.02826 -0.16109 0.49015 0.51672 0.03566 1.012 0.098 1236.683 0.01729
-0.02830 -0.16132 0.49086 0.51746 0.03754 0.839 0.095 1236.713 0.01731
-0.02834 -0.16155 0.49156 0.51821 0.03941 0.915 0.100 1236.743 0.01733
-0.02839 -0.16178 0.49227 0.51895 0.04129 1.176 0.106 1236.773 0.01736
-0.02843 -0.16202 0.49298 0.51970 0.04317 0.830 0.101 1236.803 0.01738
-0.02847 -0.16225 0.49368 0.52044 0.04505 1.003 0.104 1236.833 0.01741
-0.02851 -0.16248 0.49439 0.52118 0.04692 0.880 0.104 1236.862 0.01743
-0.02855 -0.16271 0.49509 0.52193 0.04880 0.975 0.102 1236.892 0.01746
-0.02859 -0.16294 0.49580 0.52267 0.05068 1.129 0.104 1236.922 0.01748
-0.02863 -0.16318 0.49651 0.52342 0.05256 1.101 0.103 1236.952 0.01751
-0.02867 -0.16341 0.49721 0.52416 0.05444 0.985 0.103 1236.982 0.01753
-0.02871 -0.16364 0.49792 0.52491 0.05631 0.997 0.104 1237.012 0.01756
-0.02875 -0.16387 0.49863 0.52565 0.05819 0.959 0.096 1237.042 0.01758
-0.02879 -0.16410 0.49933 0.52640 0.06007 1.091 0.102 1237.072 0.01760
-0.02883 -0.16434 0.50004 0.52714 0.06195 1.074 0.107 1237.101 0.01763
-0.02887 -0.16457 0.50074 0.52788 0.06383 0.988 0.103 1237.131 0.01765
-0.02891 -0.16480 0.50145 0.52863 0.06571 0.902 0.099 1237.161 0.01768
-0.02896 -0.16503 0.50216 0.52937 0.06758 0.824 0.107 1237.191 0.01770
-0.02900 -0.16527 0.50286 0.53012 0.06946 1.084 0.102 1237.221 0.01773
-0.02904 -0.16550 0.50357 0.53086 0.07134 1.026 0.105 1237.251 0.01775
-0.02908 -0.16573 0.50428 0.53161 0.07322 0.967 0.102 1237.281 0.01778
-0.02912 -0.16596 0.50498 0.53235 0.07510 0.987 0.097 1237.311 0.01780
-0.02916 -0.16619 0.50569 0.53310 0.07698 1.036 0.105 1237.341 0.01783
-0.02920 -0.16643 0.50640 0.53384 0.07886 0.727 0.102 1237.370 0.01785
-0.02924 -0.16666 0.50710 0.53459 0.08074 1.288 0.111 1237.400 0.01788
-0.02928 -0.16689 0.50781 0.53533 0.08261 0.989 0.097 1237.430 0.01790
-0.02932 -0.16712 0.50852 0.53608 0.08449 0.999 0.104 1237.460 0.01792
-0.02936 -0.16736 0.50922 0.53682 0.08637 0.893 0.104 1237.490 0.01795
-0.02940 -0.16759 0.50993 0.53757 0.08825 1.057 0.101 1237.520 0.01797
-0.02944 -0.16782 0.51064 0.53831 0.09013 0.942 0.101 1237.550 0.01800
-0.02948 -0.16805 0.51134 0.53906 0.09201 1.010 0.098 1237.580 0.01802
-0.02953 -0.16828 0.51205 0.53980 0.09389 1.089 0.102 1237.609 0.01805
-0.02957 -0.16852 0.51276 0.54055 0.09577 1.011 0.104 1237.639 0.01807
-0.02961 -0.16875 0.51346 0.54129 0.09765 1.031 0.105 1237.669 0.01810
-0.02965 -0.16898 0.51417 0.54204 0.09953 0.972 0.103 1237.699 0.01812
-0.02969 -0.16921 0.51488 0.54278 0.10141 1.049 0.100 1237.729 0.01815
-0.02973 -0.16945 0.51558 0.54353 0.10329 1.194 0.107 1237.759 0.01817
-0.02977 -0.16968 0.51629 0.54427 0.10517 0.915 0.105 1237.789 0.01819
-0.02981 -0.16991 0.51700 0.54502 0.10705 0.906 0.105 1237.819 0.01822
-0.02985 -0.17014 0.51770 0.54576 0.10893 0.964 0.108 1237.848 0.01824
-0.02989 -0.17038 0.51841 0.54651 0.11081 0.985 0.103 1237.878 0.01827
-0.02993 -0.17061 0.51912 0.54725 0.11269 0.947 0.095 1237.908 0.01829
-0.02997 -0.17084 0.51983 0.54800 0.11457 1.177 0.106 1237.938 0.01832
-0.03001 -0.17107 0.52053 0.54874 0.11645 1.101 0.103 1237.968 0.01834
-0.03006 -0.17130 0.52124 0.54949 0.11833 1.043 0.106 1237.998 0.01837
-0.03010 -0.17154 0.52195 0.55024 0.12021 1.023 0.099 1238.028 0.01839
-0.03014 -0.17177 0.52265 0.55098 0.12209 1.187 0.107 1238.058 0.01842
-0.03018 -0.17200 0.52336 0.55173 0.12397 1.012 0.099 1238.087 0.01844
-0.03022 -0.17223 0.52407 0.55247 0.12585 0.820 0.101 1238.117 0.01847
-0.03026 -0.17247 0.52478 0.55322 0.12773 0.975 0.097 1238.147 0.01849
-0.03030 -0.17270 0.52548 0.55396 0.12961 0.974 0.097 1238.177 0.01851
-0.03034 -0.17293 0.52619 0.55471 0.13149 0.782 0.099 1238.207 0.01854
-0.03038 -0.17316 0.52690 0.55545 0.13338 0.995 0.104 1238.237 0.01856
-0.03042 -0.17340 0.52760 0.55620 0.13526 0.812 0.101 1238.267 0.01859
-0.03046 -0.17363 0.52831 0.55695 0.13714 1.197 0.107 1238.297 0.01861
-0.03050 -0.17386 0.52902 0.55769 0.13902 0.812 0.101 1238.327 0.01864
-0.03054 -0.17409 0.52973 0.55844 0.14090 0.859 0.102 1238.356 0.01866
-0.03059 -0.17433 0.53043 0.55918 0.14278 0.927 0.095 1238.386 0.01869
-0.03063 -0.17456 0.53114 0.55993 0.14466 1.015 0.105 1238.416 0.01871
-0.03067 -0.17479 0.53185 0.56067 0.14654 1.023 0.105 1238.446 0.01874
-0.03071 -0.17502 0.53256 0.56142 0.14843 0.975 0.097 1238.476 0.01876
-0.03075 -0.17526 0.53326 0.56217 0.15031 0.879 0.104 1238.506 0.01878
-0.03079 -0.17549 0.53397 0.56291 0.15219 0.966 0.102 1238.536 0.01881
-0.03083 -0.17572 0.53468 0.56366 0.15407 0.947 0.102 1238.566 0.01883
-0.03087 -0.17595 0.53539 0.56440 0.15595 0.938 0.101 1238.595 0.01886
-0.03091 -0.17619 0.53609 0.56515 0.15783 0.733 0.102 1238.625 0.01888
-0.03095 -0.17642 0.53680 0.56590 0.15972 0.772 0.105 1238.655 0.01891
-0.03099 -0.17665 0.53751 0.56664 0.16160 0.792 0.100 1238.685 0.01893
-0.03103 -0.17688 0.53822 0.56739 0.16348 0.781 0.105 1238.715 0.01896
-0.03108 -0.17712 0.53893 0.56813 0.16536 0.829 0.095 1238.745 0.01898
-0.03112 -0.17735 0.53963 0.56888 0.16724 0.704 0.101 1238.775 0.01901
-0.03116 -0.17758 0.54034 0.56963 0.16913 0.493 0.088 1238.805 0.01903
-0.03120 -0.17781 0.54105 0.57037 0.17101 0.682 0.093 1238.834 0.01905
-0.03124 -0.17805 0.54176 0.57112 0.17289 0.812 0.100 1238.864 0.01908
-0.03128 -0.17828 0.54246 0.57186 0.17477 1.035 0.100 1238.894 0.01910
-0.03132 -0.17851 0.54317 0.57261 0.17665 0.931 0.101 1238.924 0.01913
-0.03136 -0.17875 0.54388 0.57336 0.17854 0.744 0.103 1238.954 0.01915
-0.03140 -0.17898 0.54459 0.57410 0.18042 0.939 0.101 1238.984 0.01918
-0.03144 -0.17921 0.54530 0.57485 0.18230 0.858 0.097 1239.014 0.01920
-0.03148 -0.17944 0.54600 0.57560 0.18419 0.931 0.100 1239.044 0.01923
-0.03152 -0.17968 0.54671 0.57634 0.18607 0.927 0.101 1239.073 0.01925
-0.03157 -0.17991 0.54742 0.57709 0.18795 1.038 0.100 1239.103 0.01928
-0.03161 -0.18014 0.54813 0.57784 0.18983 0.912 0.100 1239.133 0.01930
-0.03165 -0.18037 0.54884 0.57858 0.19172 1.079 0.102 1239.163 0.01933
-0.03169 -0.18061 0.54954 0.57933 0.19360 1.004 0.104 1239.193 0.01935
-0.03173 -0.18084 0.55025 0.58007 0.19548 0.990 0.098 1239.223 0.01937
-0.03177 -0.18107 0.55096 0.58082 0.19737 0.911 0.100 1239.253 0.01940
-0.03181 -0.18131 0.55167 0.58157 0.19925 0.918 0.106 1239.283 0.01942
-0.03185 -0.18154 0.55238 0.58231 0.20113 0.946 0.096 1239.313 0.01945
-0.03189 -0.18177 0.55308 0.58306 0.20302 0.891 0.099 1239.342 0.01947
-0.03193 -0.18200 0.55379 0.58381 0.20490 0.839 0.102 1239.372 0.01950
-0.03197 -0.18224 0.55450 0.58455 0.20678 1.006 0.098 1239.402 0.01952
-0.03201 -0.18247 0.55521 0.58530 0.20867 1.072 0.102 1239.432 0.01955
-0.03206 -0.18270 0.55592 0.58605 0.21055 0.956 0.096 1239.462 0.01957
-0.03210 -0.18293 0.55663 0.58679 0.21243 0.937 0.101 1239.492 0.01960
-0.03214 -0.18317 0.55733 0.58754 0.21432 0.919 0.099 1239.522 0.01962
-0.03218 -0.18340 0.55804 0.58829 0.21620 0.917 0.100 1239.552 0.01964
-0.03222 -0.18363 0.55875 0.58904 0.21809 0.939 0.101 1239.581 0.01967
-0.03226 -0.18387 0.55946 0.58978 0.21997 0.849 0.103 1239.611 0.01969
-0.03230 -0.18410 0.56017 0.59053 0.22185 1.151 0.105 1239.641 0.01972
-0.03234 -0.18433 0.56088 0.59128 0.22374 1.101 0.109 1239.671 0.01974
-0.03238 -0.18456 0.56159 0.59202 0.22562 0.995 0.098 1239.701 0.01977
-0.03242 -0.18480 0.56229 0.59277 0.22751 1.061 0.101 1239.731 0.01979
-0.03246 -0.18503 0.56300 0.59352 0.22939 0.966 0.108 1239.761 0.01982
-0.03250 -0.18526 0.56371 0.59426 0.23128 1.063 0.101 1239.791 0.01984
-0.03255 -0.18550 0.56442 0.59501 0.23316 0.831 0.108 1239.820 0.01987
-0.03259 -0.18573 0.56513 0.59576 0.23504 0.936 0.101 1239.850 0.01989
-0.03263 -0.18596 0.56584 0.59650 0.23693 0.967 0.103 1239.880 0.01992
-0.03267 -0.18619 0.56655 0.59725 0.23881 0.909 0.099 1239.910 0.01994
-0.03271 -0.18643 0.56725 0.59800 0.24070 0.811 0.100 1239.940 0.01996
-0.03275 -0.18666 0.56796 0.59875 0.24258 1.091 0.103 1239.970 0.01999
-0.03279 -0.18689 0.56867 0.59949 0.24447 0.850 0.103 1240.000 0.02001
-0.03283 -0.18713 0.56938 0.60024 0.24635 1.100 0.109 1240.030 0.02004
-0.03287 -0.18736 0.57009 0.60099 0.24824 1.051 0.101 1240.059 0.02006
-0.03291 -0.18759 0.57080 0.60174 0.25012 0.936 0.101 1240.089 0.02009
-0.03295 -0.18783 0.57151 0.60248 0.25201 1.022 0.105 1240.119 0.02011
-0.03299 -0.18806 0.57222 0.60323 0.25389 0.790 0.099 1240.149 0.02014
-0.03304 -0.18829 0.57293 0.60398 0.25578 0.935 0.101 1240.179 0.02016
-0.03308 -0.18852 0.57363 0.60472 0.25766 0.870 0.104 1240.209 0.02019
-0.03312 -0.18876 0.57434 0.60547 0.25955 1.063 0.101 1240.239 0.02021
-0.03316 -0.18899 0.57505 0.60622 0.26144 1.110 0.103 1240.269 0.02023
-0.03320 -0.18922 0.57576 0.60697 0.26332 0.731 0.102 1240.299 0.02026
-0.03324 -0.18946 0.57647 0.60771 0.26521 1.050 0.106 1240.328 0.02028
-0.03328 -0.18969 0.57718 0.60846 0.26709 1.214 0.108 1240.358 0.02031
-0.03332 -0.18992 0.57789 0.60921 0.26898 0.974 0.097 1240.388 0.02033
-0.03336 -0.19016 0.57860 0.60996 0.27086 0.886 0.098 1240.418 0.02036
-0.03340 -0.19039 0.57931 0.61070 0.27275 1.021 0.105 1240.448 0.02038
-0.03344 -0.19062 0.58002 0.61145 0.27464 0.935 0.106 1240.478 0.02041
-0.03349 -0.19085 0.58073 0.61220 0.27652 1.011 0.105 1240.508 0.02043
-0.03353 -0.19109 0.58143 0.61295 0.27841 1.099 0.103 1240.538 0.02046
-0.03357 -0.19132 0.58214 0.61370 0.28029 1.080 0.102 1240.567 0.02048
-0.03361 -0.19155 0.58285 0.61444 0.28218 1.001 0.104 1240.597 0.02050
-0.03365 -0.19179 0.58356 0.61519 0.28407 0.989 0.103 1240.627 0.02053
-0.03369 -0.19202 0.58427 0.61594 0.28595 1.096 0.103 1240.657 0.02055
-0.03373 -0.19225 0.58498 0.61669 0.28784 1.056 0.101 1240.687 0.02058
-0.03377 -0.19249 0.58569 0.61743 0.28973 0.946 0.101 1240.717 0.02060
-0.03381 -0.19272 0.58640 0.61818 0.29161 0.995 0.098 1240.747 0.02063
-0.03385 -0.19295 0.58711 0.61893 0.29350 1.017 0.104 1240.777 0.02065
-0.03389 -0.19319 0.58782 0.61968 0.29539 0.871 0.103 1240.806 0.02068
-0.03394 -0.19342 0.58853 0.62043 0.29727 0.884 0.103 1240.836 0.02070
-0.03398 -0.19365 0.58924 0.62117 0.29916 0.985 0.097 1240.866 0.02073
-0.03402 -0.19389 0.58995 0.62192 0.30105 0.906 0.100 1240.896 0.02075
-0.03406 -0.19412 0.59066 0.62267 0.30293 0.939 0.106 1240.926 0.02078
-0.03410 -0.19435 0.59137 0.62342 0.30482 1.151 0.105 1240.956 0.02080
-0.03414 -0.19459 0.59208 0.62417 0.30671 1.094 0.102 1240.986 0.02082
-0.03418 -0.19482 0.59279 0.62491 0.30859 1.121 0.104 1241.016 0.02085
-0.03422 -0.19505 0.59350 0.62566 0.31048 0.922 0.100 1241.045 0.02087
-0.03426 -0.19528 0.59421 0.62641 0.31237 1.029 0.099 1241.075 0.02090
-0.03430 -0.19552 0.59491 0.62716 0.31426 0.934 0.106 1241.105 0.02092
-0.03434 -0.19575 0.59562 0.62791 0.31614 0.977 0.102 1241.135 0.02095
-0.03439 -0.19598 0.59633 0.62866 0.31803 1.091 0.102 1241.165 0.02097
-0.03443 -0.19622 0.59704 0.62940 0.31992 0.913 0.100 1241.195 0.02100
-0.03447 -0.19645 0.59775 0.63015 0.32181 0.949 0.101 1241.225 0.02102
-0.03451 -0.19668 0.59846 0.63090 0.32369 1.055 0.106 1241.255 0.02105
-0.03455 -0.19692 0.59917 0.63165 0.32558 1.055 0.101 1241.285 0.02107
-0.03459 -0.19715 0.59988 0.63240 0.32747 0.930 0.100 1241.314 0.02109
-0.03463 -0.19738 0.60059 0.63315 0.32936 1.130 0.104 1241.344 0.02112
-0.03467 -0.19762 0.60130 0.63389 0.33125 0.959 0.107 1241.374 0.02114
-0.03471 -0.19785 0.60201 0.63464 0.33313 0.832 0.101 1241.404 0.02117
-0.03475 -0.19808 0.60272 0.63539 0.33502 0.985 0.103 1241.434 0.02119
-0.03480 -0.19832 0.60343 0.63614 0.33691 1.082 0.102 1241.464 0.02122
-0.03484 -0.19855 0.60414 0.63689 0.33880 0.984 0.097 1241.494 0.02124
-0.03488 -0.19878 0.60485 0.63764 0.34069 1.013 0.104 1241.524 0.02127
-0.03492 -0.19902 0.60556 0.63838 0.34258 1.024 0.099 1241.553 0.02129
-0.03496 -0.19925 0.60627 0.63913 0.34446 0.929 0.100 1241.583 0.02132
-0.03500 -0.19948 0.60698 0.63988 0.34635 1.005 0.098 1241.613 0.02134
-0.03504 -0.19972 0.60769 0.64063 0.34824 1.120 0.103 1241.643 0.02137
-0.03508 -0.19995 0.60840 0.64138 0.35013 0.986 0.097 1241.673 0.02139
-0.03512 -0.20018 0.60911 0.64213 0.35202 1.072 0.101 1241.703 0.02141
-0.03516 -0.20042 0.60982 0.64288 0.35391 0.939 0.100 1241.733 0.02144
-0.03520 -0.20065 0.61054 0.64363 0.35580 0.926 0.094 1241.763 0.02146
-0.03525 -0.20089 0.61125 0.64437 0.35769 0.889 0.098 1241.792 0.02149
-0.03529 -0.20112 0.61196 0.64512 0.35957 0.841 0.101 1241.822 0.02151
-0.03533 -0.20135 0.61267 0.64587 0.36146 1.061 0.101 1241.852 0.02154
-0.03537 -0.20159 0.61338 0.64662 0.36335 1.081 0.102 1241.882 0.02156
-0.03541 -0.20182 0.61409 0.64737 0.36524 1.091 0.108 1241.912 0.02159
-0.03545 -0.20205 0.61480 0.64812 0.36713 0.879 0.098 1241.942 0.02161
-0.03549 -0.20229 0.61551 0.64887 0.36902 0.982 0.103 1241.972 0.02164
-0.03553 -0.20252 0.61622 0.64962 0.37091 0.792 0.105 1242.002 0.02166
-0.03557 -0.20275 0.61693 0.65037 0.37280 0.937 0.106 1242.031 0.02168
-0.03561 -0.20299 0.61764 0.65111 0.37469 0.927 0.100 1242.061 0.02171
-0.03566 -0.20322 0.61835 0.65186 0.37658 0.945 0.101 1242.091 0.02173
-0.03570 -0.20345 0.61906 0.65261 0.37847 0.820 0.094 1242.121 0.02176
-0.03574 -0.20369 0.61977 0.65336 0.38036 0.983 0.102 1242.151 0.02178
-0.03578 -0.20392 0.62048 0.65411 0.38225 1.013 0.104 1242.181 0.02181
-0.03582 -0.20415 0.62119 0.65486 0.38414 1.040 0.105 1242.211 0.02183
-0.03586 -0.20439 0.62190 0.65561 0.38603 1.182 0.106 1242.241 0.02186
-0.03590 -0.20462 0.62261 0.65636 0.38792 1.030 0.104 1242.271 0.02188
-0.03594 -0.20485 0.62332 0.65711 0.38981 1.268 0.110 1242.300 0.02191
-0.03598 -0.20509 0.62404 0.65786 0.39170 1.000 0.098 1242.330 0.02193
-0.03602 -0.20532 0.62475 0.65861 0.39359 1.001 0.103 1242.360 0.02196
-0.03606 -0.20556 0.62546 0.65936 0.39548 1.020 0.104 1242.390 0.02198
-0.03611 -0.20579 0.62617 0.66011 0.39737 0.913 0.099 1242.420 0.02200
-0.03615 -0.20602 0.62688 0.66085 0.39926 1.064 0.115 1242.450 0.02203
-0.03619 -0.20626 0.62759 0.66160 0.40115 0.916 0.110 1242.480 0.02205
-0.03623 -0.20649 0.62830 0.66235 0.40304 1.056 0.100 1242.510 0.02208
-0.03627 -0.20672 0.62901 0.66310 0.40493 1.019 0.098 1242.539 0.02210
-0.03631 -0.20696 0.62972 0.66385 0.40682 0.884 0.098 1242.569 0.02213
-0.03635 -0.20719 0.63043 0.66460 0.40871 1.055 0.100 1242.599 0.02215
-0.03639 -0.20742 0.63114 0.66535 0.41060 0.771 0.103 1242.629 0.02218
-0.03643 -0.20766 0.63186 0.66610 0.41249 1.006 0.103 1242.659 0.02220
-0.03647 -0.20789 0.63257 0.66685 0.41438 0.921 0.105 1242.689 0.02223
-0.03652 -0.20813 0.63328 0.66760 0.41628 0.874 0.103 1242.719 0.02225
-0.03656 -0.20836 0.63399 0.66835 0.41817 1.082 0.101 1242.749 0.02227
-0.03660 -0.20859 0.63470 0.66910 0.42006 1.037 0.099 1242.778 0.02230
-0.03664 -0.20883 0.63541 0.66985 0.42195 0.978 0.096 1242.808 0.02232
-0.03668 -0.20906 0.63612 0.67060 0.42384 1.110 0.103 1242.838 0.02235
-0.03672 -0.20929 0.63683 0.67135 0.42573 0.854 0.102 1242.868 0.02237
-0.03676 -0.20953 0.63754 0.67210 0.42762 0.912 0.109 1242.898 0.02240
-0.03680 -0.20976 0.63826 0.67285 0.42951 0.867 0.108 1242.928 0.02242
-0.03684 -0.21000 0.63897 0.67360 0.43141 0.805 0.099 1242.958 0.02245
-0.03688 -0.21023 0.63968 0.67435 0.43330 0.797 0.105 1242.988 0.02247
-0.03693 -0.21046 0.64039 0.67510 0.43519 1.129 0.103 1243.017 0.02250
-0.03697 -0.21070 0.64110 0.67585 0.43708 0.851 0.102 1243.047 0.02252
-0.03701 -0.21093 0.64181 0.67660 0.43897 0.976 0.102 1243.077 0.02254
-0.03705 -0.21116 0.64252 0.67735 0.44087 1.157 0.105 1243.107 0.02257
-0.03709 -0.21140 0.64324 0.67810 0.44276 1.043 0.099 1243.137 0.02259
-0.03713 -0.21163 0.64395 0.67885 0.44465 1.021 0.098 1243.167 0.02262
-0.03717 -0.21187 0.64466 0.67960 0.44654 1.184 0.106 1243.197 0.02264
-0.03721 -0.21210 0.64537 0.68035 0.44843 1.118 0.103 1243.227 0.02267
-0.03725 -0.21233 0.64608 0.68110 0.45033 0.926 0.099 1243.257 0.02269
-0.03730 -0.21257 0.64679 0.68185 0.45222 1.013 0.104 1243.286 0.02272
-0.03734 -0.21280 0.64750 0.68260 0.45411 0.871 0.102 1243.316 0.02274
-0.03738 -0.21304 0.64822 0.68335 0.45600 1.108 0.102 1243.346 0.02277
-0.03742 -0.21327 0.64893 0.68410 0.45790 0.900 0.098 1243.376 0.02279
-0.03746 -0.21350 0.64964 0.68485 0.45979 0.956 0.095 1243.406 0.02282
-0.03750 -0.21374 0.65035 0.68560 0.46168 0.955 0.101 1243.436 0.02284
-0.03754 -0.21397 0.65106 0.68635 0.46357 0.936 0.099 1243.466 0.02286
-0.03758 -0.21421 0.65177 0.68710 0.46547 0.833 0.100 1243.496 0.02289
-0.03762 -0.21444 0.65249 0.68785 0.46736 1.010 0.103 1243.525 0.02291
-0.03766 -0.21467 0.65320 0.68860 0.46925 0.869 0.096 1243.555 0.02294
-0.03771 -0.21491 0.65391 0.68935 0.47114 0.794 0.098 1243.585 0.02296
-0.03775 -0.21514 0.65462 0.69010 0.47304 0.962 0.101 1243.615 0.02299
-0.03779 -0.21537 0.65533 0.69085 0.47493 1.008 0.103 1243.645 0.02301
-0.03783 -0.21561 0.65605 0.69160 0.47682 1.086 0.101 1243.675 0.02304
-0.03787 -0.21584 0.65676 0.69235 0.47872 0.990 0.096 1243.705 0.02306
-0.03791 -0.21608 0.65747 0.69310 0.48061 0.688 0.098 1243.735 0.02309
-0.03795 -0.21631 0.65818 0.69385 0.48250 1.090 0.101 1243.764 0.02311
-0.03799 -0.21654 0.65889 0.69461 0.48440 1.075 0.100 1243.794 0.02313
-0.03803 -0.21678 0.65961 0.69536 0.48629 0.901 0.103 1243.824 0.02316
-0.03808 -0.21701 0.66032 0.69611 0.48818 1.005 0.097 1243.854 0.02318
-0.03812 -0.21725 0.66103 0.69686 0.49008 0.965 0.100 1243.884 0.02321
-0.03816 -0.21748 0.66174 0.69761 0.49197 0.968 0.095 1243.914 0.02323
-0.03820 -0.21771 0.66245 0.69836 0.49387 1.168 0.105 1243.944 0.02326
-0.03824 -0.21795 0.66317 0.69911 0.49576 0.818 0.099 1243.974 0.02328
-0.03828 -0.21818 0.66388 0.69986 0.49765 1.055 0.099 1244.003 0.02331
-0.03832 -0.21842 0.66459 0.70061 0.49955 0.978 0.101 1244.033 0.02333
-0.03836 -0.21865 0.66530 0.70136 0.50144 1.144 0.108 1244.063 0.02336
-0.03840 -0.21889 0.66602 0.70211 0.50334 1.002 0.097 1244.093 0.02338
-0.03844 -0.21912 0.66673 0.70286 0.50523 0.994 0.102 1244.123 0.02341
-0.03849 -0.21935 0.66744 0.70361 0.50712 1.014 0.097 1244.153 0.02343
-0.03853 -0.21959 0.66815 0.70437 0.50902 0.862 0.095 1244.183 0.02345
-0.03857 -0.21982 0.66886 0.70512 0.51091 0.869 0.101 1244.213 0.02348
-0.03861 -0.22006 0.66958 0.70587 0.51281 0.977 0.096 1244.243 0.02350
-0.03865 -0.22029 0.67029 0.70662 0.51470 1.280 0.109 1244.272 0.02353
-0.03869 -0.22052 0.67100 0.70737 0.51660 1.054 0.099 1244.302 0.02355
-0.03873 -0.22076 0.67171 0.70812 0.51849 0.957 0.100 1244.332 0.02358
-0.03877 -0.22099 0.67243 0.70887 0.52039 0.928 0.098 1244.362 0.02360
-0.03881 -0.22123 0.67314 0.70962 0.52228 1.003 0.097 1244.392 0.02363
-0.03886 -0.22146 0.67385 0.71037 0.52418 0.982 0.106 1244.422 0.02365
-0.03890 -0.22169 0.67456 0.71112 0.52607 1.034 0.098 1244.452 0.02368
