x y z dist_scaled dist_frac flux_norm wavelength redshift
0.23632 -0.22054 0.38484 0.50258 0.00000 0.939 1236.115 0.01682
0.23667 -0.22087 0.38541 0.50333 0.00188 1.024 1236.145 0.01684
0.23702 -0.22119 0.38598 0.50407 0.00375 1.034 1236.175 0.01687
0.23737 -0.22152 0.38655 0.50481 0.00563 1.071 1236.205 0.01689
0.23772 -0.22185 0.38712 0.50556 0.00751 0.982 1236.235 0.01692
0.23807 -0.22217 0.38769 0.50630 0.00938 1.001 1236.265 0.01694
0.23842 -0.22250 0.38826 0.50705 0.01126 1.068 1236.295 0.01697
0.23877 -0.22282 0.38883 0.50779 0.01313 1.058 1236.325 0.01699
0.23912 -0.22315 0.38940 0.50853 0.01501 1.036 1236.355 0.01701
0.23947 -0.22348 0.38997 0.50928 0.01689 0.987 1236.384 0.01704
0.23982 -0.22380 0.39054 0.51002 0.01876 0.998 1236.414 0.01706
0.24017 -0.22413 0.39111 0.51077 0.02064 1.028 1236.444 0.01709
0.24052 -0.22446 0.39168 0.51151 0.02252 1.032 1236.474 0.01711
0.24087 -0.22478 0.39225 0.51225 0.02440 0.953 1236.504 0.01714
0.24122 -0.22511 0.39282 0.51300 0.02627 1.007 1236.534 0.01716
0.24157 -0.22544 0.39339 0.51374 0.02815 0.982 1236.564 0.01719
0.24192 -0.22576 0.39395 0.51449 0.03003 0.909 1236.594 0.01721
0.24227 -0.22609 0.39452 0.51523 0.03190 0.985 1236.623 0.01724
0.24262 -0.22642 0.39509 0.51597 0.03378 0.976 1236.653 0.01726
0.24297 -0.22674 0.39566 0.51672 0.03566 0.975 1236.683 0.01729
0.24332 -0.22707 0.39623 0.51746 0.03754 1.009 1236.713 0.01731
0.24367 -0.22740 0.39680 0.51821 0.03941 1.035 1236.743 0.01733
0.24402 -0.22772 0.39737 0.51895 0.04129 0.992 1236.773 0.01736
0.24437 -0.22805 0.39794 0.51970 0.04317 1.082 1236.803 0.01738
0.24472 -0.22838 0.39851 0.52044 0.04505 0.998 1236.833 0.01741
0.24507 -0.22870 0.39908 0.52118 0.04692 1.069 1236.862 0.01743
0.24542 -0.22903 0.39965 0.52193 0.04880 1.023 1236.892 0.01746
0.24577 -0.22936 0.40022 0.52267 0.05068 0.920 1236.922 0.01748
0.24612 -0.22968 0.40079 0.52342 0.05256 0.987 1236.952 0.01751
0.24647 -0.23001 0.40136 0.52416 0.05444 0.924 1236.982 0.01753
0.24682 -0.23034 0.40193 0.52491 0.05631 0.922 1237.012 0.01756
0.24717 -0.23066 0.40250 0.52565 0.05819 0.951 1237.042 0.01758
0.24752 -0.23099 0.40307 0.52640 0.06007 0.997 1237.072 0.01760
0.24787 -0.23132 0.40364 0.52714 0.06195 0.960 1237.101 0.01763
0.24822 -0.23164 0.40421 0.52788 0.06383 0.952 1237.131 0.01765
0.24857 -0.23197 0.40479 0.52863 0.06571 1.000 1237.161 0.01768
0.24892 -0.23230 0.40536 0.52937 0.06758 0.974 1237.191 0.01770
0.24927 -0.23262 0.40593 0.53012 0.06946 0.935 1237.221 0.01773
0.24962 -0.23295 0.40650 0.53086 0.07134 1.055 1237.251 0.01775
0.24997 -0.23328 0.40707 0.53161 0.07322 1.018 1237.281 0.01778
0.25032 -0.23360 0.40764 0.53235 0.07510 0.965 1237.311 0.01780
0.25067 -0.23393 0.40821 0.53310 0.07698 0.966 1237.341 0.01783
0.25102 -0.23426 0.40878 0.53384 0.07886 0.950 1237.370 0.01785
0.25137 -0.23458 0.40935 0.53459 0.08074 0.886 1237.400 0.01788
0.25172 -0.23491 0.40992 0.53533 0.08261 0.957 1237.430 0.01790
0.25207 -0.23524 0.41049 0.53608 0.08449 1.012 1237.460 0.01792
0.25242 -0.23556 0.41106 0.53682 0.08637 0.995 1237.490 0.01795
0.25278 -0.23589 0.41163 0.53757 0.08825 1.028 1237.520 0.01797
0.25313 -0.23622 0.41220 0.53831 0.09013 0.990 1237.550 0.01800
0.25348 -0.23655 0.41277 0.53906 0.09201 0.946 1237.580 0.01802
0.25383 -0.23687 0.41334 0.53980 0.09389 0.920 1237.609 0.01805
0.25418 -0.23720 0.41391 0.54055 0.09577 0.926 1237.639 0.01807
0.25453 -0.23753 0.41448 0.54129 0.09765 0.816 1237.669 0.01810
0.25488 -0.23785 0.41505 0.54204 0.09953 0.774 1237.699 0.01812
0.25523 -0.23818 0.41562 0.54278 0.10141 0.620 1237.729 0.01815
0.25558 -0.23851 0.41619 0.54353 0.10329 0.537 1237.759 0.01817
0.25593 -0.23883 0.41676 0.54427 0.10517 0.465 1237.789 0.01819
0.25628 -0.23916 0.41733 0.54502 0.10705 0.521 1237.819 0.01822
0.25663 -0.23949 0.41791 0.54576 0.10893 0.493 1237.848 0.01824
0.25698 -0.23982 0.41848 0.54651 0.11081 0.522 1237.878 0.01827
0.25733 -0.24014 0.41905 0.54725 0.11269 0.658 1237.908 0.01829
0.25768 -0.24047 0.41962 0.54800 0.11457 0.724 1237.938 0.01832
0.25803 -0.24080 0.42019 0.54874 0.11645 0.825 1237.968 0.01834
0.25838 -0.24112 0.42076 0.54949 0.11833 0.879 1237.998 0.01837
0.25873 -0.24145 0.42133 0.55024 0.12021 0.881 1238.028 0.01839
0.25908 -0.24178 0.42190 0.55098 0.12209 0.929 1238.058 0.01842
0.25943 -0.24210 0.42247 0.55173 0.12397 0.975 1238.087 0.01844
0.25978 -0.24243 0.42304 0.55247 0.12585 0.956 1238.117 0.01847
0.26013 -0.24276 0.42361 0.55322 0.12773 1.061 1238.147 0.01849
0.26048 -0.24309 0.42418 0.55396 0.12961 0.923 1238.177 0.01851
0.26084 -0.24341 0.42476 0.55471 0.13149 0.974 1238.207 0.01854
0.26119 -0.24374 0.42533 0.55545 0.13338 0.993 1238.237 0.01856
0.26154 -0.24407 0.42590 0.55620 0.13526 0.974 1238.267 0.01859
0.26189 -0.24439 0.42647 0.55695 0.13714 1.009 1238.297 0.01861
0.26224 -0.24472 0.42704 0.55769 0.13902 1.055 1238.327 0.01864
0.26259 -0.24505 0.42761 0.55844 0.14090 1.023 1238.356 0.01866
0.26294 -0.24538 0.42818 0.55918 0.14278 1.028 1238.386 0.01869
0.26329 -0.24570 0.42875 0.55993 0.14466 0.929 1238.416 0.01871
0.26364 -0.24603 0.42932 0.56067 0.14654 0.932 1238.446 0.01874
0.26399 -0.24636 0.42989 0.56142 0.14843 0.979 1238.476 0.01876
0.26434 -0.24669 0.43047 0.56217 0.15031 0.923 1238.506 0.01878
0.26469 -0.24701 0.43104 0.56291 0.15219 0.892 1238.536 0.01881
0.26504 -0.24734 0.43161 0.56366 0.15407 0.991 1238.566 0.01883
0.26539 -0.24767 0.43218 0.56440 0.15595 0.893 1238.595 0.01886
0.26575 -0.24799 0.43275 0.56515 0.15783 1.008 1238.625 0.01888
0.26610 -0.24832 0.43332 0.56590 0.15972 0.915 1238.655 0.01891
0.26645 -0.24865 0.43389 0.56664 0.16160 0.951 1238.685 0.01893
0.26680 -0.24898 0.43446 0.56739 0.16348 0.941 1238.715 0.01896
0.26715 -0.24930 0.43504 0.56813 0.16536 0.952 1238.745 0.01898
0.26750 -0.24963 0.43561 0.56888 0.16724 0.929 1238.775 0.01901
0.26785 -0.24996 0.43618 0.56963 0.16913 0.914 1238.805 0.01903
0.26820 -0.25029 0.43675 0.57037 0.17101 0.926 1238.834 0.01905
0.26855 -0.25061 0.43732 0.57112 0.17289 0.922 1238.864 0.01908
0.26890 -0.25094 0.43789 0.57186 0.17477 0.874 1238.894 0.01910
0.26925 -0.25127 0.43846 0.57261 0.17665 0.955 1238.924 0.01913
0.26960 -0.25160 0.43903 0.57336 0.17854 0.944 1238.954 0.01915
0.26996 -0.25192 0.43961 0.57410 0.18042 0.833 1238.984 0.01918
0.27031 -0.25225 0.44018 0.57485 0.18230 0.852 1239.014 0.01920
0.27066 -0.25258 0.44075 0.57560 0.18419 0.947 1239.044 0.01923
0.27101 -0.25291 0.44132 0.57634 0.18607 0.876 1239.073 0.01925
0.27136 -0.25323 0.44189 0.57709 0.18795 0.891 1239.103 0.01928
0.27171 -0.25356 0.44246 0.57784 0.18983 0.963 1239.133 0.01930
0.27206 -0.25389 0.44304 0.57858 0.19172 0.904 1239.163 0.01933
0.27241 -0.25422 0.44361 0.57933 0.19360 0.888 1239.193 0.01935
0.27276 -0.25454 0.44418 0.58007 0.19548 0.932 1239.223 0.01937
0.27311 -0.25487 0.44475 0.58082 0.19737 0.910 1239.253 0.01940
0.27347 -0.25520 0.44532 0.58157 0.19925 0.889 1239.283 0.01942
0.27382 -0.25553 0.44589 0.58231 0.20113 0.818 1239.313 0.01945
0.27417 -0.25585 0.44647 0.58306 0.20302 0.862 1239.342 0.01947
0.27452 -0.25618 0.44704 0.58381 0.20490 0.966 1239.372 0.01950
0.27487 -0.25651 0.44761 0.58455 0.20678 0.897 1239.402 0.01952
0.27522 -0.25684 0.44818 0.58530 0.20867 0.915 1239.432 0.01955
0.27557 -0.25717 0.44875 0.58605 0.21055 0.971 1239.462 0.01957
0.27592 -0.25749 0.44932 0.58679 0.21243 0.924 1239.492 0.01960
0.27627 -0.25782 0.44990 0.58754 0.21432 0.971 1239.522 0.01962
0.27663 -0.25815 0.45047 0.58829 0.21620 1.032 1239.552 0.01964
0.27698 -0.25848 0.45104 0.58904 0.21809 0.994 1239.581 0.01967
0.27733 -0.25880 0.45161 0.58978 0.21997 0.917 1239.611 0.01969
0.27768 -0.25913 0.45218 0.59053 0.22185 0.936 1239.641 0.01972
0.27803 -0.25946 0.45276 0.59128 0.22374 0.917 1239.671 0.01974
0.27838 -0.25979 0.45333 0.59202 0.22562 0.938 1239.701 0.01977
0.27873 -0.26011 0.45390 0.59277 0.22751 0.961 1239.731 0.01979
0.27908 -0.26044 0.45447 0.59352 0.22939 0.880 1239.761 0.01982
0.27943 -0.26077 0.45504 0.59426 0.23128 0.964 1239.791 0.01984
0.27979 -0.26110 0.45562 0.59501 0.23316 0.952 1239.820 0.01987
0.28014 -0.26143 0.45619 0.59576 0.23504 0.879 1239.850 0.01989
0.28049 -0.26175 0.45676 0.59650 0.23693 0.839 1239.880 0.01992
0.28084 -0.26208 0.45733 0.59725 0.23881 0.825 1239.910 0.01994
0.28119 -0.26241 0.45790 0.59800 0.24070 0.800 1239.940 0.01996
0.28154 -0.26274 0.45848 0.59875 0.24258 0.866 1239.970 0.01999
0.28189 -0.26307 0.45905 0.59949 0.24447 0.843 1240.000 0.02001
0.28225 -0.26339 0.45962 0.60024 0.24635 0.888 1240.030 0.02004
0.28260 -0.26372 0.46019 0.60099 0.24824 0.881 1240.059 0.02006
0.28295 -0.26405 0.46076 0.60174 0.25012 0.868 1240.089 0.02009
0.28330 -0.26438 0.46134 0.60248 0.25201 0.994 1240.119 0.02011
0.28365 -0.26470 0.46191 0.60323 0.25389 0.912 1240.149 0.02014
0.28400 -0.26503 0.46248 0.60398 0.25578 1.022 1240.179 0.02016
0.28435 -0.26536 0.46305 0.60472 0.25766 0.959 1240.209 0.02019
0.28471 -0.26569 0.46363 0.60547 0.25955 0.967 1240.239 0.02021
0.28506 -0.26602 0.46420 0.60622 0.26144 0.945 1240.269 0.02023
0.28541 -0.26634 0.46477 0.60697 0.26332 0.955 1240.299 0.02026
0.28576 -0.26667 0.46534 0.60771 0.26521 1.000 1240.328 0.02028
0.28611 -0.26700 0.46592 0.60846 0.26709 0.916 1240.358 0.02031
0.28646 -0.26733 0.46649 0.60921 0.26898 0.855 1240.388 0.02033
0.28681 -0.26766 0.46706 0.60996 0.27086 0.932 1240.418 0.02036
0.28717 -0.26798 0.46763 0.61070 0.27275 0.939 1240.448 0.02038
0.28752 -0.26831 0.46820 0.61145 0.27464 0.979 1240.478 0.02041
0.28787 -0.26864 0.46878 0.61220 0.27652 0.977 1240.508 0.02043
0.28822 -0.26897 0.46935 0.61295 0.27841 0.944 1240.538 0.02046
0.28857 -0.26930 0.46992 0.61370 0.28029 1.010 1240.567 0.02048
0.28892 -0.26963 0.47049 0.61444 0.28218 0.982 1240.597 0.02050
0.28928 -0.26995 0.47107 0.61519 0.28407 0.953 1240.627 0.02053
0.28963 -0.27028 0.47164 0.61594 0.28595 0.919 1240.657 0.02055
0.28998 -0.27061 0.47221 0.61669 0.28784 1.013 1240.687 0.02058
0.29033 -0.27094 0.47279 0.61743 0.28973 1.036 1240.717 0.02060
0.29068 -0.27127 0.47336 0.61818 0.29161 1.041 1240.747 0.02063
0.29103 -0.27159 0.47393 0.61893 0.29350 0.943 1240.777 0.02065
0.29139 -0.27192 0.47450 0.61968 0.29539 1.002 1240.806 0.02068
0.29174 -0.27225 0.47508 0.62043 0.29727 0.981 1240.836 0.02070
0.29209 -0.27258 0.47565 0.62117 0.29916 1.068 1240.866 0.02073
0.29244 -0.27291 0.47622 0.62192 0.30105 0.924 1240.896 0.02075
0.29279 -0.27324 0.47679 0.62267 0.30293 0.966 1240.926 0.02078
0.29314 -0.27356 0.47737 0.62342 0.30482 1.016 1240.956 0.02080
0.29350 -0.27389 0.47794 0.62417 0.30671 1.030 1240.986 0.02082
0.29385 -0.27422 0.47851 0.62491 0.30859 0.978 1241.016 0.02085
0.29420 -0.27455 0.47909 0.62566 0.31048 1.056 1241.045 0.02087
0.29455 -0.27488 0.47966 0.62641 0.31237 1.033 1241.075 0.02090
0.29490 -0.27521 0.48023 0.62716 0.31426 0.948 1241.105 0.02092
0.29525 -0.27553 0.48080 0.62791 0.31614 1.006 1241.135 0.02095
0.29561 -0.27586 0.48138 0.62866 0.31803 1.094 1241.165 0.02097
0.29596 -0.27619 0.48195 0.62940 0.31992 1.005 1241.195 0.02100
0.29631 -0.27652 0.48252 0.63015 0.32181 0.992 1241.225 0.02102
0.29666 -0.27685 0.48310 0.63090 0.32369 1.005 1241.255 0.02105
0.29701 -0.27718 0.48367 0.63165 0.32558 1.071 1241.285 0.02107
0.29737 -0.27750 0.48424 0.63240 0.32747 1.038 1241.314 0.02109
0.29772 -0.27783 0.48482 0.63315 0.32936 0.984 1241.344 0.02112
0.29807 -0.27816 0.48539 0.63389 0.33125 0.956 1241.374 0.02114
0.29842 -0.27849 0.48596 0.63464 0.33313 0.967 1241.404 0.02117
0.29877 -0.27882 0.48653 0.63539 0.33502 0.919 1241.434 0.02119
0.29913 -0.27915 0.48711 0.63614 0.33691 1.099 1241.464 0.02122
0.29948 -0.27947 0.48768 0.63689 0.33880 0.924 1241.494 0.02124
0.29983 -0.27980 0.48825 0.63764 0.34069 1.062 1241.524 0.02127
0.30018 -0.28013 0.48883 0.63838 0.34258 0.944 1241.553 0.02129
0.30053 -0.28046 0.48940 0.63913 0.34446 1.082 1241.583 0.02132
0.30089 -0.28079 0.48997 0.63988 0.34635 1.000 1241.613 0.02134
0.30124 -0.28112 0.49055 0.64063 0.34824 1.022 1241.643 0.02137
0.30159 -0.28145 0.49112 0.64138 0.35013 1.043 1241.673 0.02139
0.30194 -0.28177 0.49169 0.64213 0.35202 0.969 1241.703 0.02141
0.30229 -0.28210 0.49227 0.64288 0.35391 0.938 1241.733 0.02144
0.30265 -0.28243 0.49284 0.64363 0.35580 0.963 1241.763 0.02146
0.30300 -0.28276 0.49341 0.64437 0.35769 1.053 1241.792 0.02149
0.30335 -0.28309 0.49399 0.64512 0.35957 1.043 1241.822 0.02151
0.30370 -0.28342 0.49456 0.64587 0.36146 0.994 1241.852 0.02154
0.30405 -0.28375 0.49513 0.64662 0.36335 1.053 1241.882 0.02156
0.30441 -0.28407 0.49571 0.64737 0.36524 0.983 1241.912 0.02159
0.30476 -0.28440 0.49628 0.64812 0.36713 0.935 1241.942 0.02161
0.30511 -0.28473 0.49685 0.64887 0.36902 1.020 1241.972 0.02164
0.30546 -0.28506 0.49743 0.64962 0.37091 1.015 1242.002 0.02166
0.30582 -0.28539 0.49800 0.65037 0.37280 0.978 1242.031 0.02168
0.30617 -0.28572 0.49858 0.65111 0.37469 1.014 1242.061 0.02171
0.30652 -0.28605 0.49915 0.65186 0.37658 0.947 1242.091 0.02173
0.30687 -0.28637 0.49972 0.65261 0.37847 0.994 1242.121 0.02176
0.30722 -0.28670 0.50030 0.65336 0.38036 1.064 1242.151 0.02178
0.30758 -0.28703 0.50087 0.65411 0.38225 1.006 1242.181 0.02181
0.30793 -0.28736 0.50144 0.65486 0.38414 1.009 1242.211 0.02183
0.30828 -0.28769 0.50202 0.65561 0.38603 0.956 1242.241 0.02186
0.30863 -0.28802 0.50259 0.65636 0.38792 1.020 1242.271 0.02188
0.30899 -0.28835 0.50316 0.65711 0.38981 0.991 1242.300 0.02191
0.30934 -0.28868 0.50374 0.65786 0.39170 0.993 1242.330 0.02193
0.30969 -0.28900 0.50431 0.65861 0.39359 0.970 1242.360 0.02196
0.31004 -0.28933 0.50489 0.65936 0.39548 0.972 1242.390 0.02198
0.31039 -0.28966 0.50546 0.66011 0.39737 0.986 1242.420 0.02200
0.31075 -0.28999 0.50603 0.66085 0.39926 0.994 1242.450 0.02203
0.31110 -0.29032 0.50661 0.66160 0.40115 1.015 1242.480 0.02205
0.31145 -0.29065 0.50718 0.66235 0.40304 1.119 1242.510 0.02208
0.31180 -0.29098 0.50776 0.66310 0.40493 1.110 1242.539 0.02210
0.31216 -0.29131 0.50833 0.66385 0.40682 1.080 1242.569 0.02213
0.31251 -0.29164 0.50890 0.66460 0.40871 0.933 1242.599 0.02215
0.31286 -0.29196 0.50948 0.66535 0.41060 1.014 1242.629 0.02218
0.31321 -0.29229 0.51005 0.66610 0.41249 0.937 1242.659 0.02220
0.31357 -0.29262 0.51063 0.66685 0.41438 0.989 1242.689 0.02223
0.31392 -0.29295 0.51120 0.66760 0.41628 0.950 1242.719 0.02225
0.31427 -0.29328 0.51177 0.66835 0.41817 1.014 1242.749 0.02227
0.31462 -0.29361 0.51235 0.66910 0.42006 1.004 1242.778 0.02230
0.31498 -0.29394 0.51292 0.66985 0.42195 0.983 1242.808 0.02232
0.31533 -0.29427 0.51350 0.67060 0.42384 1.000 1242.838 0.02235
0.31568 -0.29460 0.51407 0.67135 0.42573 1.043 1242.868 0.02237
0.31603 -0.29493 0.51464 0.67210 0.42762 0.903 1242.898 0.02240
0.31639 -0.29525 0.51522 0.67285 0.42951 1.047 1242.928 0.02242
0.31674 -0.29558 0.51579 0.67360 0.43141 0.928 1242.958 0.02245
0.31709 -0.29591 0.51637 0.67435 0.43330 0.932 1242.988 0.02247
0.31744 -0.29624 0.51694 0.67510 0.43519 0.879 1243.017 0.02250
0.31780 -0.29657 0.51751 0.67585 0.43708 1.001 1243.047 0.02252
0.31815 -0.29690 0.51809 0.67660 0.43897 0.968 1243.077 0.02254
0.31850 -0.29723 0.51866 0.67735 0.44087 1.037 1243.107 0.02257
0.31886 -0.29756 0.51924 0.67810 0.44276 0.981 1243.137 0.02259
0.31921 -0.29789 0.51981 0.67885 0.44465 0.959 1243.167 0.02262
0.31956 -0.29822 0.52039 0.67960 0.44654 0.991 1243.197 0.02264
0.31991 -0.29855 0.52096 0.68035 0.44843 0.997 1243.227 0.02267
0.32027 -0.29887 0.52153 0.68110 0.45033 0.931 1243.257 0.02269
0.32062 -0.29920 0.52211 0.68185 0.45222 0.993 1243.286 0.02272
0.32097 -0.29953 0.52268 0.68260 0.45411 0.979 1243.316 0.02274
0.32132 -0.29986 0.52326 0.68335 0.45600 1.059 1243.346 0.02277
0.32168 -0.30019 0.52383 0.68410 0.45790 1.051 1243.376 0.02279
0.32203 -0.30052 0.52441 0.68485 0.45979 1.049 1243.406 0.02282
0.32238 -0.30085 0.52498 0.68560 0.46168 0.987 1243.436 0.02284
0.32274 -0.30118 0.52556 0.68635 0.46357 1.038 1243.466 0.02286
0.32309 -0.30151 0.52613 0.68710 0.46547 1.052 1243.496 0.02289
0.32344 -0.30184 0.52671 0.68785 0.46736 0.943 1243.525 0.02291
0.32379 -0.30217 0.52728 0.68860 0.46925 0.928 1243.555 0.02294
0.32415 -0.30250 0.52785 0.68935 0.47114 0.963 1243.585 0.02296
0.32450 -0.30283 0.52843 0.69010 0.47304 0.982 1243.615 0.02299
0.32485 -0.30315 0.52900 0.69085 0.47493 1.070 1243.645 0.02301
0.32521 -0.30348 0.52958 0.69160 0.47682 1.006 1243.675 0.02304
0.32556 -0.30381 0.53015 0.69235 0.47872 0.978 1243.705 0.02306
0.32591 -0.30414 0.53073 0.69310 0.48061 0.969 1243.735 0.02309
0.32626 -0.30447 0.53130 0.69385 0.48250 1.011 1243.764 0.02311
0.32662 -0.30480 0.53188 0.69461 0.48440 0.995 1243.794 0.02313
0.32697 -0.30513 0.53245 0.69536 0.48629 1.008 1243.824 0.02316
0.32732 -0.30546 0.53303 0.69611 0.48818 1.014 1243.854 0.02318
0.32768 -0.30579 0.53360 0.69686 0.49008 0.976 1243.884 0.02321
0.32803 -0.30612 0.53418 0.69761 0.49197 1.014 1243.914 0.02323
0.32838 -0.30645 0.53475 0.69836 0.49387 0.996 1243.944 0.02326
0.32874 -0.30678 0.53533 0.69911 0.49576 0.968 1243.974 0.02328
0.32909 -0.30711 0.53590 0.69986 0.49765 0.976 1244.003 0.02331
0.32944 -0.30744 0.53648 0.70061 0.49955 0.965 1244.033 0.02333
0.32979 -0.30777 0.53705 0.70136 0.50144 1.006 1244.063 0.02336
0.33015 -0.30810 0.53763 0.70211 0.50334 0.984 1244.093 0.02338
0.33050 -0.30843 0.53820 0.70286 0.50523 0.999 1244.123 0.02341
0.33085 -0.30875 0.53878 0.70361 0.50712 1.027 1244.153 0.02343
0.33121 -0.30908 0.53935 0.70437 0.50902 0.965 1244.183 0.02345
0.33156 -0.30941 0.53993 0.70512 0.51091 1.026 1244.213 0.02348
0.33191 -0.30974 0.54050 0.70587 0.51281 1.093 1244.243 0.02350
0.33227 -0.31007 0.54108 0.70662 0.51470 1.006 1244.272 0.02353
0.33262 -0.31040 0.54165 0.70737 0.51660 1.074 1244.302 0.02355
0.33297 -0.31073 0.54223 0.70812 0.51849 1.021 1244.332 0.02358
0.33333 -0.31106 0.54280 0.70887 0.52039 0.989 1244.362 0.02360
0.33368 -0.31139 0.54338 0.70962 0.52228 0.933 1244.392 0.02363
0.33403 -0.31172 0.54395 0.71037 0.52418 1.058 1244.422 0.02365
0.33439 -0.31205 0.54453 0.71112 0.52607 0.950 1244.452 0.02368
0.33474 -0.31238 0.54510 0.71188 0.52797 0.994 1244.482 0.02370
0.33509 -0.31271 0.54568 0.71263 0.52986 0.876 1244.511 0.02372
0.33545 -0.31304 0.54625 0.71338 0.53176 0.951 1244.541 0.02375
0.33580 -0.31337 0.54683 0.71413 0.53365 1.028 1244.571 0.02377
0.33615 -0.31370 0.54740 0.71488 0.53555 0.926 1244.601 0.02380
0.33651 -0.31403 0.54798 0.71563 0.53744 1.024 1244.631 0.02382
0.33686 -0.31436 0.54855 0.71638 0.53934 1.012 1244.661 0.02385
0.33721 -0.31469 0.54913 0.71714 0.54123 0.990 1244.691 0.02387
0.33756 -0.31502 0.54970 0.71789 0.54313 0.973 1244.721 0.02390
0.33792 -0.31535 0.55028 0.71864 0.54502 1.040 1244.750 0.02392
0.33827 -0.31568 0.55086 0.71939 0.54692 1.018 1244.780 0.02395
0.33863 -0.31601 0.55143 0.72014 0.54882 0.953 1244.810 0.02397
0.33898 -0.31634 0.55201 0.72089 0.55071 1.054 1244.840 0.02400
0.33933 -0.31667 0.55258 0.72164 0.55261 0.970 1244.870 0.02402
0.33969 -0.31700 0.55316 0.72240 0.55450 0.988 1244.900 0.02404
0.34004 -0.31733 0.55373 0.72315 0.55640 0.987 1244.930 0.02407
0.34039 -0.31766 0.55431 0.72390 0.55829 0.974 1244.960 0.02409
0.34075 -0.31799 0.55488 0.72465 0.56019 0.985 1244.989 0.02412
0.34110 -0.31832 0.55546 0.72540 0.56209 0.954 1245.019 0.02414
0.34145 -0.31865 0.55604 0.72615 0.56398 1.104 1245.049 0.02417
0.34181 -0.31898 0.55661 0.72691 0.56588 0.985 1245.079 0.02419
0.34216 -0.31931 0.55719 0.72766 0.56778 1.019 1245.109 0.02422
0.34251 -0.31964 0.55776 0.72841 0.56967 1.042 1245.139 0.02424
0.34287 -0.31997 0.55834 0.72916 0.57157 1.118 1245.169 0.02427
0.34322 -0.32030 0.55891 0.72991 0.57347 1.066 1245.199 0.02429
0.34357 -0.32063 0.55949 0.73066 0.57536 0.951 1245.229 0.02431
0.34393 -0.32095 0.56006 0.73142 0.57726 1.026 1245.258 0.02434
0.34428 -0.32128 0.56064 0.73217 0.57916 1.043 1245.288 0.02436
0.34463 -0.32161 0.56122 0.73292 0.58105 0.949 1245.318 0.02439
0.34499 -0.32194 0.56179 0.73367 0.58295 1.012 1245.348 0.02441
0.34534 -0.32227 0.56237 0.73442 0.58485 1.019 1245.378 0.02444
