x y z dist_scaled dist_frac flux_norm wavelength redshift
-0.03675 -0.03050 0.50015 0.50243 0.00000 1.079 1236.109 0.01681
-0.03681 -0.03054 0.50089 0.50317 0.00188 1.001 1236.139 0.01684
-0.03686 -0.03059 0.50163 0.50391 0.00375 0.923 1236.169 0.01686
-0.03691 -0.03063 0.50237 0.50466 0.00563 1.125 1236.199 0.01689
-0.03697 -0.03068 0.50311 0.50540 0.00750 1.047 1236.229 0.01691
-0.03702 -0.03072 0.50385 0.50615 0.00938 1.017 1236.259 0.01694
-0.03708 -0.03077 0.50460 0.50689 0.01126 1.084 1236.289 0.01696
-0.03713 -0.03081 0.50534 0.50763 0.01313 1.063 1236.318 0.01699
-0.03719 -0.03086 0.50608 0.50838 0.01501 1.020 1236.348 0.01701
-0.03724 -0.03091 0.50682 0.50912 0.01689 0.879 1236.378 0.01703
-0.03730 -0.03095 0.50756 0.50987 0.01876 1.032 1236.408 0.01706
-0.03735 -0.03100 0.50830 0.51061 0.02064 0.906 1236.438 0.01708
-0.03740 -0.03104 0.50904 0.51136 0.02252 1.014 1236.468 0.01711
-0.03746 -0.03109 0.50978 0.51210 0.02440 1.097 1236.498 0.01713
-0.03751 -0.03113 0.51052 0.51285 0.02627 0.936 1236.528 0.01716
-0.03757 -0.03118 0.51126 0.51359 0.02815 0.816 1236.558 0.01718
-0.03762 -0.03122 0.51201 0.51433 0.03003 1.092 1236.587 0.01721
-0.03768 -0.03127 0.51275 0.51508 0.03190 1.076 1236.617 0.01723
-0.03773 -0.03131 0.51349 0.51582 0.03378 1.029 1236.647 0.01726
-0.03779 -0.03136 0.51423 0.51657 0.03566 1.081 1236.677 0.01728
-0.03784 -0.03140 0.51497 0.51731 0.03754 1.075 1236.707 0.01730
-0.03789 -0.03145 0.51571 0.51806 0.03941 1.006 1236.737 0.01733
-0.03795 -0.03149 0.51645 0.51880 0.04129 0.949 1236.767 0.01735
-0.03800 -0.03154 0.51719 0.51955 0.04317 0.918 1236.797 0.01738
-0.03806 -0.03158 0.51794 0.52029 0.04505 1.125 1236.827 0.01740
-0.03811 -0.03163 0.51868 0.52104 0.04692 1.047 1236.856 0.01743
-0.03817 -0.03167 0.51942 0.52178 0.04880 0.953 1236.886 0.01745
-0.03822 -0.03172 0.52016 0.52253 0.05068 0.922 1236.916 0.01748
-0.03828 -0.03176 0.52090 0.52327 0.05256 1.036 1236.946 0.01750
-0.03833 -0.03181 0.52164 0.52401 0.05444 0.942 1236.976 0.01753
-0.03839 -0.03185 0.52238 0.52476 0.05631 0.947 1237.006 0.01755
-0.03844 -0.03190 0.52313 0.52550 0.05819 0.952 1237.036 0.01758
-0.03849 -0.03194 0.52387 0.52625 0.06007 0.962 1237.066 0.01760
-0.03855 -0.03199 0.52461 0.52699 0.06195 0.967 1237.096 0.01762
-0.03860 -0.03204 0.52535 0.52774 0.06383 0.899 1237.126 0.01765
-0.03866 -0.03208 0.52609 0.52848 0.06571 0.998 1237.155 0.01767
-0.03871 -0.03213 0.52683 0.52923 0.06758 0.946 1237.185 0.01770
-0.03877 -0.03217 0.52757 0.52997 0.06946 0.920 1237.215 0.01772
-0.03882 -0.03222 0.52832 0.53072 0.07134 0.971 1237.245 0.01775
-0.03888 -0.03226 0.52906 0.53146 0.07322 1.001 1237.275 0.01777
-0.03893 -0.03231 0.52980 0.53221 0.07510 1.042 1237.305 0.01780
-0.03898 -0.03235 0.53054 0.53295 0.07698 0.955 1237.335 0.01782
-0.03904 -0.03240 0.53128 0.53370 0.07886 1.027 1237.365 0.01785
-0.03909 -0.03244 0.53203 0.53445 0.08074 0.913 1237.395 0.01787
-0.03915 -0.03249 0.53277 0.53519 0.08261 1.135 1237.424 0.01790
-0.03920 -0.03253 0.53351 0.53594 0.08449 1.186 1237.454 0.01792
-0.03926 -0.03258 0.53425 0.53668 0.08637 1.046 1237.484 0.01794
-0.03931 -0.03262 0.53499 0.53743 0.08825 0.979 1237.514 0.01797
-0.03937 -0.03267 0.53573 0.53817 0.09013 0.958 1237.544 0.01799
-0.03942 -0.03271 0.53648 0.53892 0.09201 0.865 1237.574 0.01802
-0.03948 -0.03276 0.53722 0.53966 0.09389 1.000 1237.604 0.01804
-0.03953 -0.03280 0.53796 0.54041 0.09577 0.984 1237.634 0.01807
-0.03958 -0.03285 0.53870 0.54115 0.09765 0.921 1237.664 0.01809
-0.03964 -0.03289 0.53944 0.54190 0.09953 0.962 1237.693 0.01812
-0.03969 -0.03294 0.54019 0.54264 0.10141 0.828 1237.723 0.01814
-0.03975 -0.03299 0.54093 0.54339 0.10329 0.931 1237.753 0.01817
-0.03980 -0.03303 0.54167 0.54414 0.10517 0.997 1237.783 0.01819
-0.03986 -0.03308 0.54241 0.54488 0.10705 0.899 1237.813 0.01821
-0.03991 -0.03312 0.54316 0.54563 0.10893 0.941 1237.843 0.01824
-0.03997 -0.03317 0.54390 0.54637 0.11081 0.945 1237.873 0.01826
-0.04002 -0.03321 0.54464 0.54712 0.11269 0.976 1237.903 0.01829
-0.04008 -0.03326 0.54538 0.54786 0.11457 0.991 1237.933 0.01831
-0.04013 -0.03330 0.54612 0.54861 0.11645 0.893 1237.963 0.01834
-0.04018 -0.03335 0.54687 0.54935 0.11833 1.032 1237.992 0.01836
-0.04024 -0.03339 0.54761 0.55010 0.12021 1.154 1238.022 0.01839
-0.04029 -0.03344 0.54835 0.55085 0.12209 0.913 1238.052 0.01841
-0.04035 -0.03348 0.54909 0.55159 0.12397 1.041 1238.082 0.01844
-0.04040 -0.03353 0.54984 0.55234 0.12585 0.928 1238.112 0.01846
-0.04046 -0.03357 0.55058 0.55308 0.12773 0.974 1238.142 0.01849
-0.04051 -0.03362 0.55132 0.55383 0.12961 1.005 1238.172 0.01851
-0.04057 -0.03366 0.55206 0.55458 0.13149 1.030 1238.202 0.01853
-0.04062 -0.03371 0.55281 0.55532 0.13337 0.912 1238.232 0.01856
-0.04068 -0.03375 0.55355 0.55607 0.13526 0.754 1238.261 0.01858
-0.04073 -0.03380 0.55429 0.55681 0.13714 0.983 1238.291 0.01861
-0.04078 -0.03385 0.55503 0.55756 0.13902 0.983 1238.321 0.01863
-0.04084 -0.03389 0.55578 0.55831 0.14090 0.931 1238.351 0.01866
-0.04089 -0.03394 0.55652 0.55905 0.14278 0.941 1238.381 0.01868
-0.04095 -0.03398 0.55726 0.55980 0.14466 0.945 1238.411 0.01871
-0.04100 -0.03403 0.55801 0.56054 0.14654 1.108 1238.441 0.01873
-0.04106 -0.03407 0.55875 0.56129 0.14842 0.991 1238.471 0.01876
-0.04111 -0.03412 0.55949 0.56204 0.15031 1.016 1238.501 0.01878
-0.04117 -0.03416 0.56023 0.56278 0.15219 0.904 1238.530 0.01880
-0.04122 -0.03421 0.56098 0.56353 0.15407 0.970 1238.560 0.01883
-0.04128 -0.03425 0.56172 0.56428 0.15595 1.016 1238.590 0.01885
-0.04133 -0.03430 0.56246 0.56502 0.15783 0.826 1238.620 0.01888
-0.04138 -0.03434 0.56321 0.56577 0.15971 0.897 1238.650 0.01890
-0.04144 -0.03439 0.56395 0.56651 0.16160 0.872 1238.680 0.01893
-0.04149 -0.03443 0.56469 0.56726 0.16348 0.780 1238.710 0.01895
-0.04155 -0.03448 0.56543 0.56801 0.16536 0.831 1238.740 0.01898
-0.04160 -0.03452 0.56618 0.56875 0.16724 0.820 1238.770 0.01900
-0.04166 -0.03457 0.56692 0.56950 0.16912 0.870 1238.799 0.01903
-0.04171 -0.03462 0.56766 0.57025 0.17101 0.850 1238.829 0.01905
-0.04177 -0.03466 0.56841 0.57099 0.17289 0.854 1238.859 0.01908
-0.04182 -0.03471 0.56915 0.57174 0.17477 0.849 1238.889 0.01910
-0.04188 -0.03475 0.56989 0.57249 0.17665 0.828 1238.919 0.01912
-0.04193 -0.03480 0.57064 0.57323 0.17854 0.904 1238.949 0.01915
-0.04199 -0.03484 0.57138 0.57398 0.18042 0.940 1238.979 0.01917
-0.04204 -0.03489 0.57212 0.57473 0.18230 0.798 1239.009 0.01920
-0.04209 -0.03493 0.57287 0.57547 0.18418 0.904 1239.039 0.01922
-0.04215 -0.03498 0.57361 0.57622 0.18607 0.970 1239.069 0.01925
-0.04220 -0.03502 0.57435 0.57697 0.18795 1.056 1239.098 0.01927
-0.04226 -0.03507 0.57510 0.57771 0.18983 0.884 1239.128 0.01930
-0.04231 -0.03511 0.57584 0.57846 0.19172 0.980 1239.158 0.01932
-0.04237 -0.03516 0.57658 0.57921 0.19360 1.065 1239.188 0.01935
-0.04242 -0.03520 0.57733 0.57995 0.19548 1.050 1239.218 0.01937
-0.04248 -0.03525 0.57807 0.58070 0.19737 0.963 1239.248 0.01939
-0.04253 -0.03530 0.57881 0.58145 0.19925 1.065 1239.278 0.01942
-0.04259 -0.03534 0.57956 0.58219 0.20113 1.069 1239.308 0.01944
-0.04264 -0.03539 0.58030 0.58294 0.20302 0.916 1239.338 0.01947
-0.04270 -0.03543 0.58104 0.58369 0.20490 0.962 1239.367 0.01949
-0.04275 -0.03548 0.58179 0.58443 0.20678 0.937 1239.397 0.01952
-0.04280 -0.03552 0.58253 0.58518 0.20867 1.042 1239.427 0.01954
-0.04286 -0.03557 0.58328 0.58593 0.21055 0.981 1239.457 0.01957
-0.04291 -0.03561 0.58402 0.58668 0.21243 1.007 1239.487 0.01959
-0.04297 -0.03566 0.58476 0.58742 0.21432 1.047 1239.517 0.01962
-0.04302 -0.03570 0.58551 0.58817 0.21620 0.940 1239.547 0.01964
-0.04308 -0.03575 0.58625 0.58892 0.21809 0.945 1239.577 0.01967
-0.04313 -0.03579 0.58699 0.58966 0.21997 1.075 1239.607 0.01969
-0.04319 -0.03584 0.58774 0.59041 0.22185 0.904 1239.636 0.01971
-0.04324 -0.03588 0.58848 0.59116 0.22374 1.122 1239.666 0.01974
-0.04330 -0.03593 0.58923 0.59191 0.22562 0.883 1239.696 0.01976
-0.04335 -0.03598 0.58997 0.59265 0.22751 0.929 1239.726 0.01979
-0.04341 -0.03602 0.59071 0.59340 0.22939 0.963 1239.756 0.01981
-0.04346 -0.03607 0.59146 0.59415 0.23127 0.857 1239.786 0.01984
-0.04352 -0.03611 0.59220 0.59490 0.23316 0.924 1239.816 0.01986
-0.04357 -0.03616 0.59295 0.59564 0.23504 0.782 1239.846 0.01989
-0.04362 -0.03620 0.59369 0.59639 0.23693 0.954 1239.876 0.01991
-0.04368 -0.03625 0.59443 0.59714 0.23881 0.974 1239.906 0.01994
-0.04373 -0.03629 0.59518 0.59789 0.24070 1.004 1239.935 0.01996
-0.04379 -0.03634 0.59592 0.59863 0.24258 0.969 1239.965 0.01999
-0.04384 -0.03638 0.59667 0.59938 0.24447 1.008 1239.995 0.02001
-0.04390 -0.03643 0.59741 0.60013 0.24635 1.028 1240.025 0.02003
-0.04395 -0.03647 0.59815 0.60088 0.24824 0.987 1240.055 0.02006
-0.04401 -0.03652 0.59890 0.60162 0.25012 0.932 1240.085 0.02008
-0.04406 -0.03657 0.59964 0.60237 0.25201 0.922 1240.115 0.02011
-0.04412 -0.03661 0.60039 0.60312 0.25389 1.063 1240.145 0.02013
-0.04417 -0.03666 0.60113 0.60387 0.25578 0.966 1240.175 0.02016
-0.04423 -0.03670 0.60188 0.60461 0.25766 0.975 1240.204 0.02018
-0.04428 -0.03675 0.60262 0.60536 0.25955 0.901 1240.234 0.02021
-0.04434 -0.03679 0.60336 0.60611 0.26143 0.979 1240.264 0.02023
-0.04439 -0.03684 0.60411 0.60686 0.26332 0.950 1240.294 0.02026
-0.04445 -0.03688 0.60485 0.60760 0.26521 0.846 1240.324 0.02028
-0.04450 -0.03693 0.60560 0.60835 0.26709 0.995 1240.354 0.02030
-0.04455 -0.03697 0.60634 0.60910 0.26898 0.948 1240.384 0.02033
-0.04461 -0.03702 0.60709 0.60985 0.27086 1.092 1240.414 0.02035
-0.04466 -0.03706 0.60783 0.61060 0.27275 1.157 1240.444 0.02038
-0.04472 -0.03711 0.60858 0.61134 0.27463 1.056 1240.473 0.02040
-0.04477 -0.03716 0.60932 0.61209 0.27652 1.169 1240.503 0.02043
-0.04483 -0.03720 0.61007 0.61284 0.27841 1.016 1240.533 0.02045
-0.04488 -0.03725 0.61081 0.61359 0.28029 1.101 1240.563 0.02048
-0.04494 -0.03729 0.61155 0.61434 0.28218 1.068 1240.593 0.02050
-0.04499 -0.03734 0.61230 0.61508 0.28407 1.007 1240.623 0.02053
-0.04505 -0.03738 0.61304 0.61583 0.28595 1.013 1240.653 0.02055
-0.04510 -0.03743 0.61379 0.61658 0.28784 1.048 1240.683 0.02058
-0.04516 -0.03747 0.61453 0.61733 0.28972 1.022 1240.713 0.02060
-0.04521 -0.03752 0.61528 0.61808 0.29161 1.062 1240.742 0.02062
-0.04527 -0.03756 0.61602 0.61883 0.29350 0.938 1240.772 0.02065
-0.04532 -0.03761 0.61677 0.61957 0.29538 0.999 1240.802 0.02067
-0.04538 -0.03766 0.61751 0.62032 0.29727 0.979 1240.832 0.02070
-0.04543 -0.03770 0.61826 0.62107 0.29916 0.803 1240.862 0.02072
-0.04548 -0.03775 0.61900 0.62182 0.30105 0.981 1240.892 0.02075
-0.04554 -0.03779 0.61975 0.62257 0.30293 1.023 1240.922 0.02077
-0.04559 -0.03784 0.62049 0.62332 0.30482 1.047 1240.952 0.02080
-0.04565 -0.03788 0.62124 0.62406 0.30671 0.967 1240.982 0.02082
-0.04570 -0.03793 0.62198 0.62481 0.30859 1.072 1241.012 0.02085
-0.04576 -0.03797 0.62273 0.62556 0.31048 1.077 1241.041 0.02087
-0.04581 -0.03802 0.62347 0.62631 0.31237 1.101 1241.071 0.02089
-0.04587 -0.03806 0.62422 0.62706 0.31426 1.007 1241.101 0.02092
-0.04592 -0.03811 0.62496 0.62781 0.31614 0.912 1241.131 0.02094
-0.04598 -0.03816 0.62571 0.62855 0.31803 1.061 1241.161 0.02097
-0.04603 -0.03820 0.62645 0.62930 0.31992 1.012 1241.191 0.02099
-0.04609 -0.03825 0.62720 0.63005 0.32181 1.058 1241.221 0.02102
-0.04614 -0.03829 0.62794 0.63080 0.32369 1.051 1241.251 0.02104
-0.04620 -0.03834 0.62869 0.63155 0.32558 1.071 1241.281 0.02107
-0.04625 -0.03838 0.62944 0.63230 0.32747 1.166 1241.310 0.02109
-0.04631 -0.03843 0.63018 0.63305 0.32936 0.985 1241.340 0.02112
-0.04636 -0.03847 0.63093 0.63380 0.33125 1.030 1241.370 0.02114
-0.04642 -0.03852 0.63167 0.63454 0.33313 0.985 1241.400 0.02117
-0.04647 -0.03856 0.63242 0.63529 0.33502 0.990 1241.430 0.02119
-0.04653 -0.03861 0.63316 0.63604 0.33691 0.980 1241.460 0.02121
-0.04658 -0.03866 0.63391 0.63679 0.33880 0.985 1241.490 0.02124
-0.04663 -0.03870 0.63465 0.63754 0.34069 0.930 1241.520 0.02126
-0.04669 -0.03875 0.63540 0.63829 0.34257 1.054 1241.550 0.02129
-0.04674 -0.03879 0.63614 0.63904 0.34446 1.063 1241.579 0.02131
-0.04680 -0.03884 0.63689 0.63979 0.34635 0.954 1241.609 0.02134
-0.04685 -0.03888 0.63764 0.64054 0.34824 0.964 1241.639 0.02136
-0.04691 -0.03893 0.63838 0.64128 0.35013 1.088 1241.669 0.02139
-0.04696 -0.03897 0.63913 0.64203 0.35202 1.088 1241.699 0.02141
-0.04702 -0.03902 0.63987 0.64278 0.35391 1.003 1241.729 0.02144
-0.04707 -0.03906 0.64062 0.64353 0.35580 0.924 1241.759 0.02146
-0.04713 -0.03911 0.64136 0.64428 0.35768 0.939 1241.789 0.02149
-0.04718 -0.03916 0.64211 0.64503 0.35957 1.018 1241.819 0.02151
-0.04724 -0.03920 0.64286 0.64578 0.36146 1.054 1241.849 0.02153
-0.04729 -0.03925 0.64360 0.64653 0.36335 1.045 1241.878 0.02156
-0.04735 -0.03929 0.64435 0.64728 0.36524 0.975 1241.908 0.02158
-0.04740 -0.03934 0.64509 0.64803 0.36713 0.995 1241.938 0.02161
-0.04746 -0.03938 0.64584 0.64878 0.36902 0.947 1241.968 0.02163
-0.04751 -0.03943 0.64658 0.64953 0.37091 1.022 1241.998 0.02166
-0.04757 -0.03947 0.64733 0.65028 0.37280 1.097 1242.028 0.02168
-0.04762 -0.03952 0.64808 0.65102 0.37469 1.111 1242.058 0.02171
-0.04768 -0.03956 0.64882 0.65177 0.37658 0.963 1242.088 0.02173
-0.04773 -0.03961 0.64957 0.65252 0.37847 1.027 1242.118 0.02176
-0.04779 -0.03966 0.65031 0.65327 0.38036 0.959 1242.147 0.02178
-0.04784 -0.03970 0.65106 0.65402 0.38225 1.011 1242.177 0.02180
-0.04790 -0.03975 0.65181 0.65477 0.38414 1.015 1242.207 0.02183
-0.04795 -0.03979 0.65255 0.65552 0.38603 1.084 1242.237 0.02185
-0.04801 -0.03984 0.65330 0.65627 0.38792 1.108 1242.267 0.02188
-0.04806 -0.03988 0.65405 0.65702 0.38981 1.024 1242.297 0.02190
-0.04811 -0.03993 0.65479 0.65777 0.39170 0.956 1242.327 0.02193
-0.04817 -0.03997 0.65554 0.65852 0.39359 0.943 1242.357 0.02195
-0.04822 -0.04002 0.65628 0.65927 0.39548 1.078 1242.387 0.02198
-0.04828 -0.04007 0.65703 0.66002 0.39737 0.858 1242.416 0.02200
-0.04833 -0.04011 0.65778 0.66077 0.39926 0.977 1242.446 0.02203
-0.04839 -0.04016 0.65852 0.66152 0.40115 0.997 1242.476 0.02205
-0.04844 -0.04020 0.65927 0.66227 0.40304 0.987 1242.506 0.02208
-0.04850 -0.04025 0.66002 0.66302 0.40493 0.888 1242.536 0.02210
-0.04855 -0.04029 0.66076 0.66377 0.40682 0.927 1242.566 0.02212
-0.04861 -0.04034 0.66151 0.66452 0.40871 0.836 1242.596 0.02215
-0.04866 -0.04038 0.66226 0.66527 0.41060 0.768 1242.626 0.02217
-0.04872 -0.04043 0.66300 0.66602 0.41249 0.768 1242.656 0.02220
-0.04877 -0.04047 0.66375 0.66677 0.41438 0.986 1242.685 0.02222
-0.04883 -0.04052 0.66450 0.66752 0.41627 0.832 1242.715 0.02225
-0.04888 -0.04057 0.66524 0.66827 0.41817 0.936 1242.745 0.02227
-0.04894 -0.04061 0.66599 0.66902 0.42006 0.911 1242.775 0.02230
-0.04899 -0.04066 0.66674 0.66977 0.42195 0.816 1242.805 0.02232
-0.04905 -0.04070 0.66748 0.67052 0.42384 0.865 1242.835 0.02235
-0.04910 -0.04075 0.66823 0.67127 0.42573 0.906 1242.865 0.02237
-0.04916 -0.04079 0.66898 0.67202 0.42762 0.929 1242.895 0.02239
-0.04921 -0.04084 0.66972 0.67277 0.42951 0.836 1242.925 0.02242
-0.04927 -0.04088 0.67047 0.67352 0.43141 0.878 1242.955 0.02244
-0.04932 -0.04093 0.67122 0.67427 0.43330 0.859 1242.984 0.02247
-0.04938 -0.04098 0.67196 0.67502 0.43519 0.800 1243.014 0.02249
-0.04943 -0.04102 0.67271 0.67577 0.43708 0.864 1243.044 0.02252
-0.04949 -0.04107 0.67346 0.67652 0.43897 1.043 1243.074 0.02254
-0.04954 -0.04111 0.67420 0.67727 0.44086 0.851 1243.104 0.02257
-0.04960 -0.04116 0.67495 0.67802 0.44276 0.928 1243.134 0.02259
-0.04965 -0.04120 0.67570 0.67877 0.44465 0.985 1243.164 0.02262
-0.04971 -0.04125 0.67644 0.67952 0.44654 0.952 1243.194 0.02264
-0.04976 -0.04129 0.67719 0.68027 0.44843 0.923 1243.224 0.02267
-0.04982 -0.04134 0.67794 0.68102 0.45032 1.012 1243.253 0.02269
-0.04987 -0.04139 0.67869 0.68177 0.45222 1.037 1243.283 0.02271
-0.04993 -0.04143 0.67943 0.68252 0.45411 1.028 1243.313 0.02274
-0.04998 -0.04148 0.68018 0.68327 0.45600 1.037 1243.343 0.02276
-0.05004 -0.04152 0.68093 0.68402 0.45789 0.979 1243.373 0.02279
-0.05009 -0.04157 0.68167 0.68477 0.45979 0.914 1243.403 0.02281
-0.05014 -0.04161 0.68242 0.68553 0.46168 0.915 1243.433 0.02284
-0.05020 -0.04166 0.68317 0.68628 0.46357 1.001 1243.463 0.02286
-0.05025 -0.04170 0.68392 0.68703 0.46546 0.985 1243.493 0.02289
-0.05031 -0.04175 0.68466 0.68778 0.46736 0.964 1243.522 0.02291
-0.05036 -0.04180 0.68541 0.68853 0.46925 0.990 1243.552 0.02294
-0.05042 -0.04184 0.68616 0.68928 0.47114 1.029 1243.582 0.02296
-0.05047 -0.04189 0.68690 0.69003 0.47304 1.052 1243.612 0.02298
-0.05053 -0.04193 0.68765 0.69078 0.47493 1.053 1243.642 0.02301
-0.05058 -0.04198 0.68840 0.69153 0.47682 0.939 1243.672 0.02303
-0.05064 -0.04202 0.68915 0.69228 0.47872 0.890 1243.702 0.02306
-0.05069 -0.04207 0.68989 0.69303 0.48061 0.963 1243.732 0.02308
-0.05075 -0.04211 0.69064 0.69378 0.48250 0.914 1243.762 0.02311
-0.05080 -0.04216 0.69139 0.69453 0.48440 0.993 1243.792 0.02313
-0.05086 -0.04221 0.69214 0.69529 0.48629 0.805 1243.821 0.02316
-0.05091 -0.04225 0.69288 0.69604 0.48818 0.894 1243.851 0.02318
-0.05097 -0.04230 0.69363 0.69679 0.49008 0.913 1243.881 0.02321
-0.05102 -0.04234 0.69438 0.69754 0.49197 0.987 1243.911 0.02323
-0.05108 -0.04239 0.69513 0.69829 0.49386 0.991 1243.941 0.02326
-0.05113 -0.04243 0.69588 0.69904 0.49576 0.879 1243.971 0.02328
-0.05119 -0.04248 0.69662 0.69979 0.49765 0.943 1244.001 0.02330
-0.05124 -0.04252 0.69737 0.70054 0.49955 1.066 1244.031 0.02333
-0.05130 -0.04257 0.69812 0.70129 0.50144 0.987 1244.061 0.02335
-0.05135 -0.04262 0.69887 0.70205 0.50333 1.002 1244.090 0.02338
-0.05141 -0.04266 0.69961 0.70280 0.50523 0.954 1244.120 0.02340
-0.05146 -0.04271 0.70036 0.70355 0.50712 1.046 1244.150 0.02343
-0.05152 -0.04275 0.70111 0.70430 0.50902 1.002 1244.180 0.02345
-0.05157 -0.04280 0.70186 0.70505 0.51091 1.041 1244.210 0.02348
-0.05163 -0.04284 0.70261 0.70580 0.51281 0.867 1244.240 0.02350
-0.05168 -0.04289 0.70335 0.70655 0.51470 1.089 1244.270 0.02353
-0.05174 -0.04294 0.70410 0.70730 0.51660 0.914 1244.300 0.02355
-0.05179 -0.04298 0.70485 0.70806 0.51849 1.039 1244.330 0.02358
-0.05185 -0.04303 0.70560 0.70881 0.52038 1.019 1244.359 0.02360
-0.05190 -0.04307 0.70635 0.70956 0.52228 0.911 1244.389 0.02362
-0.05196 -0.04312 0.70709 0.71031 0.52417 0.945 1244.419 0.02365
-0.05201 -0.04316 0.70784 0.71106 0.52607 1.012 1244.449 0.02367
-0.05207 -0.04321 0.70859 0.71181 0.52796 0.987 1244.479 0.02370
-0.05212 -0.04325 0.70934 0.71256 0.52986 0.924 1244.509 0.02372
-0.05218 -0.04330 0.71009 0.71332 0.53175 1.028 1244.539 0.02375
-0.05223 -0.04335 0.71083 0.71407 0.53365 1.017 1244.569 0.02377
-0.05229 -0.04339 0.71158 0.71482 0.53555 1.139 1244.599 0.02380
-0.05234 -0.04344 0.71233 0.71557 0.53744 1.089 1244.629 0.02382
-0.05240 -0.04348 0.71308 0.71632 0.53934 0.929 1244.658 0.02385
-0.05245 -0.04353 0.71383 0.71707 0.54123 1.063 1244.688 0.02387
-0.05251 -0.04357 0.71458 0.71783 0.54313 0.969 1244.718 0.02389
-0.05256 -0.04362 0.71532 0.71858 0.54502 0.900 1244.748 0.02392
-0.05262 -0.04367 0.71607 0.71933 0.54692 0.983 1244.778 0.02394
-0.05267 -0.04371 0.71682 0.72008 0.54881 0.964 1244.808 0.02397
-0.05273 -0.04376 0.71757 0.72083 0.55071 1.057 1244.838 0.02399
-0.05278 -0.04380 0.71832 0.72159 0.55261 0.940 1244.868 0.02402
-0.05284 -0.04385 0.71907 0.72234 0.55450 0.929 1244.898 0.02404
-0.05289 -0.04389 0.71982 0.72309 0.55640 1.013 1244.927 0.02407
-0.05295 -0.04394 0.72056 0.72384 0.55829 0.944 1244.957 0.02409
-0.05300 -0.04398 0.72131 0.72459 0.56019 1.008 1244.987 0.02412
-0.05306 -0.04403 0.72206 0.72535 0.56209 1.126 1245.017 0.02414
-0.05311 -0.04408 0.72281 0.72610 0.56398 1.027 1245.047 0.02417
-0.05317 -0.04412 0.72356 0.72685 0.56588 0.920 1245.077 0.02419
-0.05322 -0.04417 0.72431 0.72760 0.56778 0.934 1245.107 0.02421
-0.05328 -0.04421 0.72506 0.72835 0.56967 0.884 1245.137 0.02424
-0.05333 -0.04426 0.72580 0.72911 0.57157 1.026 1245.167 0.02426
-0.05339 -0.04430 0.72655 0.72986 0.57346 0.987 1245.196 0.02429
-0.05344 -0.04435 0.72730 0.73061 0.57536 0.874 1245.226 0.02431
