x y z dist_scaled dist_frac flux_norm wavelength redshift
-0.42839 0.04559 0.25852 0.50243 0.00000 1.016 1236.109 0.01681
-0.42903 0.04566 0.25890 0.50317 0.00188 0.721 1236.139 0.01684
-0.42966 0.04573 0.25929 0.50391 0.00375 0.974 1236.169 0.01686
-0.43030 0.04579 0.25967 0.50466 0.00563 1.046 1236.199 0.01689
-0.43093 0.04586 0.26005 0.50540 0.00750 0.989 1236.229 0.01691
-0.43156 0.04593 0.26044 0.50615 0.00938 1.061 1236.259 0.01694
-0.43220 0.04600 0.26082 0.50689 0.01126 1.028 1236.289 0.01696
-0.43283 0.04606 0.26120 0.50763 0.01313 1.102 1236.318 0.01699
-0.43347 0.04613 0.26159 0.50838 0.01501 1.067 1236.348 0.01701
-0.43410 0.04620 0.26197 0.50912 0.01689 0.832 1236.378 0.01703
-0.43474 0.04627 0.26235 0.50987 0.01876 0.881 1236.408 0.01706
-0.43537 0.04633 0.26273 0.51061 0.02064 0.992 1236.438 0.01708
-0.43601 0.04640 0.26312 0.51136 0.02252 0.903 1236.468 0.01711
-0.43664 0.04647 0.26350 0.51210 0.02440 0.876 1236.498 0.01713
-0.43728 0.04654 0.26388 0.51285 0.02627 0.972 1236.528 0.01716
-0.43791 0.04660 0.26427 0.51359 0.02815 0.825 1236.558 0.01718
-0.43855 0.04667 0.26465 0.51433 0.03003 1.056 1236.587 0.01721
-0.43918 0.04674 0.26503 0.51508 0.03190 0.858 1236.617 0.01723
-0.43982 0.04681 0.26542 0.51582 0.03378 1.036 1236.647 0.01726
-0.44045 0.04687 0.26580 0.51657 0.03566 1.187 1236.677 0.01728
-0.44108 0.04694 0.26618 0.51731 0.03754 1.033 1236.707 0.01730
-0.44172 0.04701 0.26656 0.51806 0.03941 0.958 1236.737 0.01733
-0.44235 0.04708 0.26695 0.51880 0.04129 0.914 1236.767 0.01735
-0.44299 0.04714 0.26733 0.51955 0.04317 1.002 1236.797 0.01738
-0.44362 0.04721 0.26771 0.52029 0.04505 0.941 1236.827 0.01740
-0.44426 0.04728 0.26810 0.52104 0.04692 0.890 1236.856 0.01743
-0.44489 0.04735 0.26848 0.52178 0.04880 1.062 1236.886 0.01745
-0.44553 0.04741 0.26886 0.52253 0.05068 0.734 1236.916 0.01748
-0.44616 0.04748 0.26925 0.52327 0.05256 0.930 1236.946 0.01750
-0.44680 0.04755 0.26963 0.52401 0.05444 0.929 1236.976 0.01753
-0.44743 0.04762 0.27001 0.52476 0.05631 0.908 1237.006 0.01755
-0.44807 0.04768 0.27040 0.52550 0.05819 1.016 1237.036 0.01758
-0.44870 0.04775 0.27078 0.52625 0.06007 1.005 1237.066 0.01760
-0.44934 0.04782 0.27116 0.52699 0.06195 0.930 1237.096 0.01762
-0.44998 0.04789 0.27155 0.52774 0.06383 0.907 1237.126 0.01765
-0.45061 0.04796 0.27193 0.52848 0.06571 0.907 1237.155 0.01767
-0.45125 0.04802 0.27231 0.52923 0.06758 1.003 1237.185 0.01770
-0.45188 0.04809 0.27270 0.52997 0.06946 0.906 1237.215 0.01772
-0.45252 0.04816 0.27308 0.53072 0.07134 0.916 1237.245 0.01775
-0.45315 0.04823 0.27346 0.53146 0.07322 0.838 1237.275 0.01777
-0.45379 0.04829 0.27385 0.53221 0.07510 1.012 1237.305 0.01780
-0.45442 0.04836 0.27423 0.53295 0.07698 0.925 1237.335 0.01782
-0.45506 0.04843 0.27461 0.53370 0.07886 1.202 1237.365 0.01785
-0.45569 0.04850 0.27500 0.53445 0.08074 1.052 1237.395 0.01787
-0.45633 0.04856 0.27538 0.53519 0.08261 0.847 1237.424 0.01790
-0.45696 0.04863 0.27576 0.53594 0.08449 0.720 1237.454 0.01792
-0.45760 0.04870 0.27615 0.53668 0.08637 0.913 1237.484 0.01794
-0.45823 0.04877 0.27653 0.53743 0.08825 1.018 1237.514 0.01797
-0.45887 0.04883 0.27691 0.53817 0.09013 0.890 1237.544 0.01799
-0.45951 0.04890 0.27730 0.53892 0.09201 0.943 1237.574 0.01802
-0.46014 0.04897 0.27768 0.53966 0.09389 0.943 1237.604 0.01804
-0.46078 0.04904 0.27807 0.54041 0.09577 0.984 1237.634 0.01807
-0.46141 0.04910 0.27845 0.54115 0.09765 0.985 1237.664 0.01809
-0.46205 0.04917 0.27883 0.54190 0.09953 0.952 1237.693 0.01812
-0.46268 0.04924 0.27922 0.54264 0.10141 0.974 1237.723 0.01814
-0.46332 0.04931 0.27960 0.54339 0.10329 1.122 1237.753 0.01817
-0.46396 0.04938 0.27998 0.54414 0.10517 1.047 1237.783 0.01819
-0.46459 0.04944 0.28037 0.54488 0.10705 1.058 1237.813 0.01821
-0.46523 0.04951 0.28075 0.54563 0.10893 1.101 1237.843 0.01824
-0.46586 0.04958 0.28113 0.54637 0.11081 0.948 1237.873 0.01826
-0.46650 0.04965 0.28152 0.54712 0.11269 1.057 1237.903 0.01829
-0.46713 0.04971 0.28190 0.54786 0.11457 0.963 1237.933 0.01831
-0.46777 0.04978 0.28229 0.54861 0.11645 1.025 1237.963 0.01834
-0.46841 0.04985 0.28267 0.54935 0.11833 0.921 1237.992 0.01836
-0.46904 0.04992 0.28305 0.55010 0.12021 0.923 1238.022 0.01839
-0.46968 0.04998 0.28344 0.55085 0.12209 1.048 1238.052 0.01841
-0.47031 0.05005 0.28382 0.55159 0.12397 0.849 1238.082 0.01844
-0.47095 0.05012 0.28420 0.55234 0.12585 0.903 1238.112 0.01846
-0.47159 0.05019 0.28459 0.55308 0.12773 0.945 1238.142 0.01849
-0.47222 0.05025 0.28497 0.55383 0.12961 0.936 1238.172 0.01851
-0.47286 0.05032 0.28536 0.55458 0.13149 0.902 1238.202 0.01853
-0.47349 0.05039 0.28574 0.55532 0.13337 0.808 1238.232 0.01856
-0.47413 0.05046 0.28612 0.55607 0.13526 0.973 1238.261 0.01858
-0.47477 0.05053 0.28651 0.55681 0.13714 0.935 1238.291 0.01861
-0.47540 0.05059 0.28689 0.55756 0.13902 0.649 1238.321 0.01863
-0.47604 0.05066 0.28727 0.55831 0.14090 0.964 1238.351 0.01866
-0.47667 0.05073 0.28766 0.55905 0.14278 0.823 1238.381 0.01868
-0.47731 0.05080 0.28804 0.55980 0.14466 0.815 1238.411 0.01871
-0.47795 0.05086 0.28843 0.56054 0.14654 0.766 1238.441 0.01873
-0.47858 0.05093 0.28881 0.56129 0.14842 0.805 1238.471 0.01876
-0.47922 0.05100 0.28919 0.56204 0.15031 0.805 1238.501 0.01878
-0.47985 0.05107 0.28958 0.56278 0.15219 0.876 1238.530 0.01880
-0.48049 0.05113 0.28996 0.56353 0.15407 0.759 1238.560 0.01883
-0.48113 0.05120 0.29035 0.56428 0.15595 0.722 1238.590 0.01885
-0.48176 0.05127 0.29073 0.56502 0.15783 0.860 1238.620 0.01888
-0.48240 0.05134 0.29111 0.56577 0.15971 0.700 1238.650 0.01890
-0.48304 0.05141 0.29150 0.56651 0.16160 0.829 1238.680 0.01893
-0.48367 0.05147 0.29188 0.56726 0.16348 0.711 1238.710 0.01895
-0.48431 0.05154 0.29227 0.56801 0.16536 0.691 1238.740 0.01898
-0.48495 0.05161 0.29265 0.56875 0.16724 0.733 1238.770 0.01900
-0.48558 0.05168 0.29303 0.56950 0.16912 0.846 1238.799 0.01903
-0.48622 0.05174 0.29342 0.57025 0.17101 0.815 1238.829 0.01905
-0.48686 0.05181 0.29380 0.57099 0.17289 0.816 1238.859 0.01908
-0.48749 0.05188 0.29419 0.57174 0.17477 0.705 1238.889 0.01910
-0.48813 0.05195 0.29457 0.57249 0.17665 0.820 1238.919 0.01912
-0.48876 0.05202 0.29496 0.57323 0.17854 0.717 1238.949 0.01915
-0.48940 0.05208 0.29534 0.57398 0.18042 0.857 1238.979 0.01917
-0.49004 0.05215 0.29572 0.57473 0.18230 0.941 1239.009 0.01920
-0.49067 0.05222 0.29611 0.57547 0.18418 0.906 1239.039 0.01922
-0.49131 0.05229 0.29649 0.57622 0.18607 0.880 1239.069 0.01925
-0.49195 0.05235 0.29688 0.57697 0.18795 1.013 1239.098 0.01927
-0.49258 0.05242 0.29726 0.57771 0.18983 0.881 1239.128 0.01930
-0.49322 0.05249 0.29764 0.57846 0.19172 1.028 1239.158 0.01932
-0.49386 0.05256 0.29803 0.57921 0.19360 0.990 1239.188 0.01935
-0.49450 0.05263 0.29841 0.57995 0.19548 0.973 1239.218 0.01937
-0.49513 0.05269 0.29880 0.58070 0.19737 0.894 1239.248 0.01939
-0.49577 0.05276 0.29918 0.58145 0.19925 0.832 1239.278 0.01942
-0.49641 0.05283 0.29957 0.58219 0.20113 0.879 1239.308 0.01944
-0.49704 0.05290 0.29995 0.58294 0.20302 1.003 1239.338 0.01947
-0.49768 0.05296 0.30034 0.58369 0.20490 1.049 1239.367 0.01949
-0.49832 0.05303 0.30072 0.58443 0.20678 1.110 1239.397 0.01952
-0.49895 0.05310 0.30110 0.58518 0.20867 1.102 1239.427 0.01954
-0.49959 0.05317 0.30149 0.58593 0.21055 1.087 1239.457 0.01957
-0.50023 0.05324 0.30187 0.58668 0.21243 0.923 1239.487 0.01959
-0.50086 0.05330 0.30226 0.58742 0.21432 1.138 1239.517 0.01962
-0.50150 0.05337 0.30264 0.58817 0.21620 1.101 1239.547 0.01964
-0.50214 0.05344 0.30303 0.58892 0.21809 0.883 1239.577 0.01967
-0.50278 0.05351 0.30341 0.58966 0.21997 1.079 1239.607 0.01969
-0.50341 0.05357 0.30379 0.59041 0.22185 0.852 1239.636 0.01971
-0.50405 0.05364 0.30418 0.59116 0.22374 0.995 1239.666 0.01974
-0.50469 0.05371 0.30456 0.59191 0.22562 0.955 1239.696 0.01976
-0.50532 0.05378 0.30495 0.59265 0.22751 0.945 1239.726 0.01979
-0.50596 0.05385 0.30533 0.59340 0.22939 0.841 1239.756 0.01981
-0.50660 0.05391 0.30572 0.59415 0.23127 0.902 1239.786 0.01984
-0.50724 0.05398 0.30610 0.59490 0.23316 0.881 1239.816 0.01986
-0.50787 0.05405 0.30649 0.59564 0.23504 0.624 1239.846 0.01989
-0.50851 0.05412 0.30687 0.59639 0.23693 0.871 1239.876 0.01991
-0.50915 0.05418 0.30726 0.59714 0.23881 0.859 1239.906 0.01994
-0.50978 0.05425 0.30764 0.59789 0.24070 0.787 1239.935 0.01996
-0.51042 0.05432 0.30802 0.59863 0.24258 0.961 1239.965 0.01999
-0.51106 0.05439 0.30841 0.59938 0.24447 0.746 1239.995 0.02001
-0.51170 0.05446 0.30879 0.60013 0.24635 0.890 1240.025 0.02003
-0.51233 0.05452 0.30918 0.60088 0.24824 0.960 1240.055 0.02006
-0.51297 0.05459 0.30956 0.60162 0.25012 0.807 1240.085 0.02008
-0.51361 0.05466 0.30995 0.60237 0.25201 0.868 1240.115 0.02011
-0.51425 0.05473 0.31033 0.60312 0.25389 0.889 1240.145 0.02013
-0.51488 0.05480 0.31072 0.60387 0.25578 0.806 1240.175 0.02016
-0.51552 0.05486 0.31110 0.60461 0.25766 1.154 1240.204 0.02018
-0.51616 0.05493 0.31149 0.60536 0.25955 1.184 1240.234 0.02021
-0.51680 0.05500 0.31187 0.60611 0.26143 0.786 1240.264 0.02023
-0.51743 0.05507 0.31226 0.60686 0.26332 0.908 1240.294 0.02026
-0.51807 0.05513 0.31264 0.60760 0.26521 0.755 1240.324 0.02028
-0.51871 0.05520 0.31303 0.60835 0.26709 0.866 1240.354 0.02030
-0.51935 0.05527 0.31341 0.60910 0.26898 0.896 1240.384 0.02033
-0.51999 0.05534 0.31380 0.60985 0.27086 0.990 1240.414 0.02035
-0.52062 0.05541 0.31418 0.61060 0.27275 0.935 1240.444 0.02038
-0.52126 0.05547 0.31457 0.61134 0.27463 0.972 1240.473 0.02040
-0.52190 0.05554 0.31495 0.61209 0.27652 0.941 1240.503 0.02043
-0.52254 0.05561 0.31534 0.61284 0.27841 1.054 1240.533 0.02045
-0.52317 0.05568 0.31572 0.61359 0.28029 1.147 1240.563 0.02048
-0.52381 0.05575 0.31611 0.61434 0.28218 0.994 1240.593 0.02050
-0.52445 0.05581 0.31649 0.61508 0.28407 1.029 1240.623 0.02053
-0.52509 0.05588 0.31688 0.61583 0.28595 0.848 1240.653 0.02055
-0.52573 0.05595 0.31726 0.61658 0.28784 1.062 1240.683 0.02058
-0.52636 0.05602 0.31765 0.61733 0.28972 0.887 1240.713 0.02060
-0.52700 0.05608 0.31803 0.61808 0.29161 0.960 1240.742 0.02062
-0.52764 0.05615 0.31842 0.61883 0.29350 1.060 1240.772 0.02065
-0.52828 0.05622 0.31880 0.61957 0.29538 0.892 1240.802 0.02067
-0.52892 0.05629 0.31919 0.62032 0.29727 1.036 1240.832 0.02070
-0.52955 0.05636 0.31957 0.62107 0.29916 1.050 1240.862 0.02072
-0.53019 0.05642 0.31996 0.62182 0.30105 0.852 1240.892 0.02075
-0.53083 0.05649 0.32034 0.62257 0.30293 0.913 1240.922 0.02077
-0.53147 0.05656 0.32073 0.62332 0.30482 1.002 1240.952 0.02080
-0.53211 0.05663 0.32111 0.62406 0.30671 0.956 1240.982 0.02082
-0.53274 0.05670 0.32150 0.62481 0.30859 0.859 1241.012 0.02085
-0.53338 0.05676 0.32188 0.62556 0.31048 1.024 1241.041 0.02087
-0.53402 0.05683 0.32227 0.62631 0.31237 1.138 1241.071 0.02089
-0.53466 0.05690 0.32265 0.62706 0.31426 1.088 1241.101 0.02092
-0.53530 0.05697 0.32304 0.62781 0.31614 0.896 1241.131 0.02094
-0.53594 0.05704 0.32342 0.62855 0.31803 1.083 1241.161 0.02097
-0.53657 0.05710 0.32381 0.62930 0.31992 1.023 1241.191 0.02099
-0.53721 0.05717 0.32419 0.63005 0.32181 1.083 1241.221 0.02102
-0.53785 0.05724 0.32458 0.63080 0.32369 1.037 1241.251 0.02104
-0.53849 0.05731 0.32496 0.63155 0.32558 0.894 1241.281 0.02107
-0.53913 0.05738 0.32535 0.63230 0.32747 1.096 1241.310 0.02109
-0.53977 0.05744 0.32573 0.63305 0.32936 0.988 1241.340 0.02112
-0.54040 0.05751 0.32612 0.63380 0.33125 1.163 1241.370 0.02114
-0.54104 0.05758 0.32650 0.63454 0.33313 0.907 1241.400 0.02117
-0.54168 0.05765 0.32689 0.63529 0.33502 1.071 1241.430 0.02119
-0.54232 0.05771 0.32727 0.63604 0.33691 0.982 1241.460 0.02121
-0.54296 0.05778 0.32766 0.63679 0.33880 0.995 1241.490 0.02124
-0.54360 0.05785 0.32804 0.63754 0.34069 1.145 1241.520 0.02126
-0.54423 0.05792 0.32843 0.63829 0.34257 0.851 1241.550 0.02129
-0.54487 0.05799 0.32882 0.63904 0.34446 0.791 1241.579 0.02131
-0.54551 0.05805 0.32920 0.63979 0.34635 1.187 1241.609 0.02134
-0.54615 0.05812 0.32959 0.64054 0.34824 0.911 1241.639 0.02136
-0.54679 0.05819 0.32997 0.64128 0.35013 0.966 1241.669 0.02139
-0.54743 0.05826 0.33036 0.64203 0.35202 0.764 1241.699 0.02141
-0.54807 0.05833 0.33074 0.64278 0.35391 0.986 1241.729 0.02144
-0.54871 0.05839 0.33113 0.64353 0.35580 1.096 1241.759 0.02146
-0.54934 0.05846 0.33151 0.64428 0.35768 1.088 1241.789 0.02149
-0.54998 0.05853 0.33190 0.64503 0.35957 1.033 1241.819 0.02151
-0.55062 0.05860 0.33228 0.64578 0.36146 1.112 1241.849 0.02153
-0.55126 0.05867 0.33267 0.64653 0.36335 1.111 1241.878 0.02156
-0.55190 0.05873 0.33306 0.64728 0.36524 1.047 1241.908 0.02158
-0.55254 0.05880 0.33344 0.64803 0.36713 0.977 1241.938 0.02161
-0.55318 0.05887 0.33383 0.64878 0.36902 1.018 1241.968 0.02163
-0.55382 0.05894 0.33421 0.64953 0.37091 0.970 1241.998 0.02166
-0.55446 0.05901 0.33460 0.65028 0.37280 0.982 1242.028 0.02168
-0.55509 0.05907 0.33498 0.65102 0.37469 0.934 1242.058 0.02171
-0.55573 0.05914 0.33537 0.65177 0.37658 1.092 1242.088 0.02173
-0.55637 0.05921 0.33575 0.65252 0.37847 0.873 1242.118 0.02176
-0.55701 0.05928 0.33614 0.65327 0.38036 0.999 1242.147 0.02178
-0.55765 0.05935 0.33653 0.65402 0.38225 0.916 1242.177 0.02180
-0.55829 0.05941 0.33691 0.65477 0.38414 0.893 1242.207 0.02183
-0.55893 0.05948 0.33730 0.65552 0.38603 0.888 1242.237 0.02185
-0.55957 0.05955 0.33768 0.65627 0.38792 1.012 1242.267 0.02188
-0.56021 0.05962 0.33807 0.65702 0.38981 1.013 1242.297 0.02190
-0.56085 0.05969 0.33845 0.65777 0.39170 0.946 1242.327 0.02193
-0.56149 0.05975 0.33884 0.65852 0.39359 1.064 1242.357 0.02195
-0.56212 0.05982 0.33923 0.65927 0.39548 0.841 1242.387 0.02198
-0.56276 0.05989 0.33961 0.66002 0.39737 0.863 1242.416 0.02200
-0.56340 0.05996 0.34000 0.66077 0.39926 0.795 1242.446 0.02203
-0.56404 0.06003 0.34038 0.66152 0.40115 0.923 1242.476 0.02205
-0.56468 0.06009 0.34077 0.66227 0.40304 0.971 1242.506 0.02208
-0.56532 0.06016 0.34115 0.66302 0.40493 0.891 1242.536 0.02210
-0.56596 0.06023 0.34154 0.66377 0.40682 0.941 1242.566 0.02212
-0.56660 0.06030 0.34193 0.66452 0.40871 0.927 1242.596 0.02215
-0.56724 0.06037 0.34231 0.66527 0.41060 1.028 1242.626 0.02217
-0.56788 0.06043 0.34270 0.66602 0.41249 0.918 1242.656 0.02220
-0.56852 0.06050 0.34308 0.66677 0.41438 0.807 1242.685 0.02222
-0.56916 0.06057 0.34347 0.66752 0.41627 0.860 1242.715 0.02225
-0.56980 0.06064 0.34386 0.66827 0.41817 1.020 1242.745 0.02227
-0.57044 0.06071 0.34424 0.66902 0.42006 0.725 1242.775 0.02230
-0.57108 0.06078 0.34463 0.66977 0.42195 0.806 1242.805 0.02232
-0.57172 0.06084 0.34501 0.67052 0.42384 0.887 1242.835 0.02235
-0.57235 0.06091 0.34540 0.67127 0.42573 0.856 1242.865 0.02237
-0.57299 0.06098 0.34579 0.67202 0.42762 1.010 1242.895 0.02239
-0.57363 0.06105 0.34617 0.67277 0.42951 1.047 1242.925 0.02242
-0.57427 0.06112 0.34656 0.67352 0.43141 0.776 1242.955 0.02244
-0.57491 0.06118 0.34694 0.67427 0.43330 0.987 1242.984 0.02247
-0.57555 0.06125 0.34733 0.67502 0.43519 0.901 1243.014 0.02249
-0.57619 0.06132 0.34772 0.67577 0.43708 1.107 1243.044 0.02252
-0.57683 0.06139 0.34810 0.67652 0.43897 0.876 1243.074 0.02254
-0.57747 0.06146 0.34849 0.67727 0.44086 0.970 1243.104 0.02257
-0.57811 0.06152 0.34887 0.67802 0.44276 0.978 1243.134 0.02259
-0.57875 0.06159 0.34926 0.67877 0.44465 0.963 1243.164 0.02262
-0.57939 0.06166 0.34965 0.67952 0.44654 1.183 1243.194 0.02264
-0.58003 0.06173 0.35003 0.68027 0.44843 0.977 1243.224 0.02267
-0.58067 0.06180 0.35042 0.68102 0.45032 0.970 1243.253 0.02269
-0.58131 0.06186 0.35080 0.68177 0.45222 1.100 1243.283 0.02271
-0.58195 0.06193 0.35119 0.68252 0.45411 1.027 1243.313 0.02274
-0.58259 0.06200 0.35158 0.68327 0.45600 1.158 1243.343 0.02276
-0.58323 0.06207 0.35196 0.68402 0.45789 0.807 1243.373 0.02279
-0.58387 0.06214 0.35235 0.68477 0.45979 1.003 1243.403 0.02281
-0.58451 0.06221 0.35274 0.68553 0.46168 1.017 1243.433 0.02284
-0.58515 0.06227 0.35312 0.68628 0.46357 0.995 1243.463 0.02286
-0.58579 0.06234 0.35351 0.68703 0.46546 1.142 1243.493 0.02289
-0.58643 0.06241 0.35389 0.68778 0.46736 0.821 1243.522 0.02291
-0.58707 0.06248 0.35428 0.68853 0.46925 1.096 1243.552 0.02294
-0.58771 0.06255 0.35467 0.68928 0.47114 1.218 1243.582 0.02296
-0.58835 0.06261 0.35505 0.69003 0.47304 1.094 1243.612 0.02298
-0.58899 0.06268 0.35544 0.69078 0.47493 1.116 1243.642 0.02301
-0.58963 0.06275 0.35583 0.69153 0.47682 1.014 1243.672 0.02303
-0.59027 0.06282 0.35621 0.69228 0.47872 1.065 1243.702 0.02306
-0.59091 0.06289 0.35660 0.69303 0.48061 0.774 1243.732 0.02308
-0.59155 0.06295 0.35698 0.69378 0.48250 1.048 1243.762 0.02311
-0.59219 0.06302 0.35737 0.69453 0.48440 1.099 1243.792 0.02313
-0.59283 0.06309 0.35776 0.69529 0.48629 0.989 1243.821 0.02316
-0.59347 0.06316 0.35814 0.69604 0.48818 0.924 1243.851 0.02318
-0.59411 0.06323 0.35853 0.69679 0.49008 1.038 1243.881 0.02321
-0.59475 0.06330 0.35892 0.69754 0.49197 0.793 1243.911 0.02323
-0.59539 0.06336 0.35930 0.69829 0.49386 1.250 1243.941 0.02326
-0.59603 0.06343 0.35969 0.69904 0.49576 0.977 1243.971 0.02328
-0.59668 0.06350 0.36008 0.69979 0.49765 0.932 1244.001 0.02330
-0.59732 0.06357 0.36046 0.70054 0.49955 1.049 1244.031 0.02333
-0.59796 0.06364 0.36085 0.70129 0.50144 0.875 1244.061 0.02335
-0.59860 0.06370 0.36124 0.70205 0.50333 1.031 1244.090 0.02338
-0.59924 0.06377 0.36162 0.70280 0.50523 1.100 1244.120 0.02340
-0.59988 0.06384 0.36201 0.70355 0.50712 0.909 1244.150 0.02343
-0.60052 0.06391 0.36240 0.70430 0.50902 0.980 1244.180 0.02345
-0.60116 0.06398 0.36278 0.70505 0.51091 1.258 1244.210 0.02348
-0.60180 0.06404 0.36317 0.70580 0.51281 0.925 1244.240 0.02350
-0.60244 0.06411 0.36356 0.70655 0.51470 1.139 1244.270 0.02353
-0.60308 0.06418 0.36394 0.70730 0.51660 0.930 1244.300 0.02355
-0.60372 0.06425 0.36433 0.70806 0.51849 1.118 1244.330 0.02358
-0.60436 0.06432 0.36472 0.70881 0.52038 0.705 1244.359 0.02360
-0.60500 0.06439 0.36510 0.70956 0.52228 0.995 1244.389 0.02362
-0.60564 0.06445 0.36549 0.71031 0.52417 1.116 1244.419 0.02365
-0.60628 0.06452 0.36588 0.71106 0.52607 1.070 1244.449 0.02367
-0.60693 0.06459 0.36626 0.71181 0.52796 1.153 1244.479 0.02370
-0.60757 0.06466 0.36665 0.71256 0.52986 1.017 1244.509 0.02372
-0.60821 0.06473 0.36704 0.71332 0.53175 1.008 1244.539 0.02375
-0.60885 0.06480 0.36742 0.71407 0.53365 1.000 1244.569 0.02377
-0.60949 0.06486 0.36781 0.71482 0.53555 0.936 1244.599 0.02380
-0.61013 0.06493 0.36820 0.71557 0.53744 0.913 1244.629 0.02382
-0.61077 0.06500 0.36858 0.71632 0.53934 0.922 1244.658 0.02385
-0.61141 0.06507 0.36897 0.71707 0.54123 0.826 1244.688 0.02387
-0.61205 0.06514 0.36936 0.71783 0.54313 1.013 1244.718 0.02389
-0.61269 0.06520 0.36974 0.71858 0.54502 0.999 1244.748 0.02392
-0.61333 0.06527 0.37013 0.71933 0.54692 0.977 1244.778 0.02394
-0.61398 0.06534 0.37052 0.72008 0.54881 1.019 1244.808 0.02397
-0.61462 0.06541 0.37090 0.72083 0.55071 1.082 1244.838 0.02399
-0.61526 0.06548 0.37129 0.72159 0.55261 1.003 1244.868 0.02402
-0.61590 0.06555 0.37168 0.72234 0.55450 1.312 1244.898 0.02404
-0.61654 0.06561 0.37206 0.72309 0.55640 1.061 1244.927 0.02407
-0.61718 0.06568 0.37245 0.72384 0.55829 0.994 1244.957 0.02409
-0.61782 0.06575 0.37284 0.72459 0.56019 0.964 1244.987 0.02412
-0.61846 0.06582 0.37322 0.72535 0.56209 0.986 1245.017 0.02414
-0.61911 0.06589 0.37361 0.72610 0.56398 1.096 1245.047 0.02417
-0.61975 0.06595 0.37400 0.72685 0.56588 0.965 1245.077 0.02419
-0.62039 0.06602 0.37439 0.72760 0.56778 1.069 1245.107 0.02421
-0.62103 0.06609 0.37477 0.72835 0.56967 1.218 1245.137 0.02424
-0.62167 0.06616 0.37516 0.72911 0.57157 1.073 1245.167 0.02426
-0.62231 0.06623 0.37555 0.72986 0.57346 0.804 1245.196 0.02429
-0.62295 0.06630 0.37593 0.73061 0.57536 1.122 1245.226 0.02431
-0.62359 0.06636 0.37632 0.73136 0.57726 0.988 1245.256 0.02434
-0.62424 0.06643 0.37671 0.73212 0.57916 1.018 1245.286 0.02436
-0.62488 0.06650 0.37710 0.73287 0.58105 0.993 1245.316 0.02439
-0.62552 0.06657 0.37748 0.73362 0.58295 1.012 1245.346 0.02441
-0.62616 0.06664 0.37787 0.73437 0.58485 0.976 1245.376 0.02444
