x y z dist_scaled dist_frac flux_norm sig_norm wavelength redshift
-0.13006 0.36649 0.31836 0.50258 0.00000 0.832 0.128 1236.115 0.01682
-0.13025 0.36704 0.31884 0.50333 0.00188 0.921 0.124 1236.145 0.01684
-0.13044 0.36758 0.31931 0.50407 0.00375 1.105 0.135 1236.175 0.01687
-0.13064 0.36812 0.31978 0.50481 0.00563 0.938 0.134 1236.205 0.01689
-0.13083 0.36866 0.32025 0.50556 0.00751 1.002 0.138 1236.235 0.01692
-0.13102 0.36921 0.32072 0.50630 0.00938 0.924 0.134 1236.265 0.01694
-0.13121 0.36975 0.32119 0.50705 0.01126 0.938 0.134 1236.295 0.01697
-0.13141 0.37029 0.32166 0.50779 0.01313 1.083 0.134 1236.325 0.01699
-0.13160 0.37083 0.32213 0.50853 0.01501 1.056 0.133 1236.355 0.01701
-0.13179 0.37138 0.32261 0.50928 0.01689 0.900 0.123 1236.384 0.01704
-0.13198 0.37192 0.32308 0.51002 0.01876 1.086 0.134 1236.414 0.01706
-0.13218 0.37246 0.32355 0.51077 0.02064 0.956 0.136 1236.444 0.01709
-0.13237 0.37300 0.32402 0.51151 0.02252 0.917 0.125 1236.474 0.01711
-0.13256 0.37355 0.32449 0.51225 0.02440 1.047 0.133 1236.504 0.01714
-0.13275 0.37409 0.32496 0.51300 0.02627 0.996 0.138 1236.534 0.01716
-0.13295 0.37463 0.32543 0.51374 0.02815 0.972 0.127 1236.564 0.01719
-0.13314 0.37517 0.32591 0.51449 0.03003 1.104 0.136 1236.594 0.01721
-0.13333 0.37572 0.32638 0.51523 0.03190 1.026 0.132 1236.623 0.01724
-0.13352 0.37626 0.32685 0.51597 0.03378 1.142 0.138 1236.653 0.01726
-0.13372 0.37680 0.32732 0.51672 0.03566 1.026 0.132 1236.683 0.01729
-0.13391 0.37734 0.32779 0.51746 0.03754 0.870 0.131 1236.713 0.01731
-0.13410 0.37789 0.32826 0.51821 0.03941 1.081 0.135 1236.743 0.01733
-0.13430 0.37843 0.32873 0.51895 0.04129 1.185 0.141 1236.773 0.01736
-0.13449 0.37897 0.32921 0.51970 0.04317 0.924 0.134 1236.803 0.01738
-0.13468 0.37952 0.32968 0.52044 0.04505 1.097 0.136 1236.833 0.01741
-0.13487 0.38006 0.33015 0.52118 0.04692 1.043 0.133 1236.862 0.01743
-0.13507 0.38060 0.33062 0.52193 0.04880 1.110 0.137 1236.892 0.01746
-0.13526 0.38114 0.33109 0.52267 0.05068 0.940 0.135 1236.922 0.01748
-0.13545 0.38169 0.33156 0.52342 0.05256 0.942 0.135 1236.952 0.01751
-0.13564 0.38223 0.33203 0.52416 0.05444 0.903 0.133 1236.982 0.01753
-0.13584 0.38277 0.33251 0.52491 0.05631 1.086 0.144 1237.012 0.01756
-0.13603 0.38332 0.33298 0.52565 0.05819 1.060 0.134 1237.042 0.01758
-0.13622 0.38386 0.33345 0.52640 0.06007 0.810 0.128 1237.072 0.01760
-0.13641 0.38440 0.33392 0.52714 0.06195 1.047 0.133 1237.101 0.01763
-0.13661 0.38494 0.33439 0.52788 0.06383 0.889 0.133 1237.131 0.01765
-0.13680 0.38549 0.33486 0.52863 0.06571 0.969 0.137 1237.161 0.01768
-0.13699 0.38603 0.33534 0.52937 0.06758 0.865 0.131 1237.191 0.01770
-0.13719 0.38657 0.33581 0.53012 0.06946 0.798 0.127 1237.221 0.01773
-0.13738 0.38712 0.33628 0.53086 0.07134 1.090 0.136 1237.251 0.01775
-0.13757 0.38766 0.33675 0.53161 0.07322 0.971 0.138 1237.281 0.01778
-0.13776 0.38820 0.33722 0.53235 0.07510 0.842 0.130 1237.311 0.01780
-0.13796 0.38875 0.33770 0.53310 0.07698 0.868 0.132 1237.341 0.01783
-0.13815 0.38929 0.33817 0.53384 0.07886 0.998 0.131 1237.370 0.01785
-0.13834 0.38983 0.33864 0.53459 0.08074 0.959 0.128 1237.400 0.01788
-0.13853 0.39038 0.33911 0.53533 0.08261 0.975 0.138 1237.430 0.01790
-0.13873 0.39092 0.33958 0.53608 0.08449 0.737 0.123 1237.460 0.01792
-0.13892 0.39146 0.34005 0.53682 0.08637 1.014 0.140 1237.490 0.01795
-0.13911 0.39201 0.34053 0.53757 0.08825 1.096 0.137 1237.520 0.01797
-0.13931 0.39255 0.34100 0.53831 0.09013 1.256 0.145 1237.550 0.01800
-0.13950 0.39309 0.34147 0.53906 0.09201 0.884 0.133 1237.580 0.01802
-0.13969 0.39363 0.34194 0.53980 0.09389 1.217 0.143 1237.609 0.01805
-0.13988 0.39418 0.34241 0.54055 0.09577 1.044 0.142 1237.639 0.01807
-0.14008 0.39472 0.34289 0.54129 0.09765 1.044 0.134 1237.669 0.01810
-0.14027 0.39526 0.34336 0.54204 0.09953 1.033 0.142 1237.699 0.01812
-0.14046 0.39581 0.34383 0.54278 0.10141 1.099 0.145 1237.729 0.01815
-0.14066 0.39635 0.34430 0.54353 0.10329 0.806 0.128 1237.759 0.01817
-0.14085 0.39690 0.34477 0.54427 0.10517 0.967 0.138 1237.789 0.01819
-0.14104 0.39744 0.34525 0.54502 0.10705 1.047 0.142 1237.819 0.01822
-0.14123 0.39798 0.34572 0.54576 0.10893 1.244 0.137 1237.848 0.01824
-0.14143 0.39853 0.34619 0.54651 0.11081 0.901 0.134 1237.878 0.01827
-0.14162 0.39907 0.34666 0.54725 0.11269 1.021 0.141 1237.908 0.01829
-0.14181 0.39961 0.34713 0.54800 0.11457 0.848 0.131 1237.938 0.01832
-0.14201 0.40016 0.34761 0.54874 0.11645 0.927 0.136 1237.968 0.01834
-0.14220 0.40070 0.34808 0.54949 0.11833 1.140 0.148 1237.998 0.01837
-0.14239 0.40124 0.34855 0.55024 0.12021 1.007 0.140 1238.028 0.01839
-0.14258 0.40179 0.34902 0.55098 0.12209 0.981 0.139 1238.058 0.01842
-0.14278 0.40233 0.34950 0.55173 0.12397 0.876 0.133 1238.087 0.01844
-0.14297 0.40287 0.34997 0.55247 0.12585 0.980 0.139 1238.117 0.01847
-0.14316 0.40342 0.35044 0.55322 0.12773 1.235 0.136 1238.147 0.01849
-0.14336 0.40396 0.35091 0.55396 0.12961 0.876 0.133 1238.177 0.01851
-0.14355 0.40451 0.35138 0.55471 0.13149 0.957 0.138 1238.207 0.01854
-0.14374 0.40505 0.35186 0.55545 0.13338 1.034 0.142 1238.237 0.01856
-0.14393 0.40559 0.35233 0.55620 0.13526 1.222 0.136 1238.267 0.01859
-0.14413 0.40614 0.35280 0.55695 0.13714 0.797 0.128 1238.297 0.01861
-0.14432 0.40668 0.35327 0.55769 0.13902 0.821 0.130 1238.327 0.01864
-0.14451 0.40722 0.35375 0.55844 0.14090 0.929 0.126 1238.356 0.01866
-0.14471 0.40777 0.35422 0.55918 0.14278 0.876 0.133 1238.386 0.01869
-0.14490 0.40831 0.35469 0.55993 0.14466 0.756 0.125 1238.416 0.01871
-0.14509 0.40886 0.35516 0.56067 0.14654 0.863 0.132 1238.446 0.01874
-0.14529 0.40940 0.35564 0.56142 0.14843 1.064 0.144 1238.476 0.01876
-0.14548 0.40994 0.35611 0.56217 0.15031 0.782 0.127 1238.506 0.01878
-0.14567 0.41049 0.35658 0.56291 0.15219 0.928 0.136 1238.536 0.01881
-0.14586 0.41103 0.35705 0.56366 0.15407 0.913 0.135 1238.566 0.01883
-0.14606 0.41158 0.35753 0.56440 0.15595 0.942 0.137 1238.595 0.01886
-0.14625 0.41212 0.35800 0.56515 0.15783 0.944 0.137 1238.625 0.01888
-0.14644 0.41266 0.35847 0.56590 0.15972 0.636 0.117 1238.655 0.01891
-0.14664 0.41321 0.35894 0.56664 0.16160 1.023 0.133 1238.685 0.01893
-0.14683 0.41375 0.35942 0.56739 0.16348 0.732 0.149 1238.715 0.01896
-0.14702 0.41430 0.35989 0.56813 0.16536 0.783 0.127 1238.745 0.01898
-0.14722 0.41484 0.36036 0.56888 0.16724 1.010 0.141 1238.775 0.01901
-0.14741 0.41538 0.36083 0.56963 0.16913 0.862 0.132 1238.805 0.01903
-0.14760 0.41593 0.36131 0.57037 0.17101 0.969 0.139 1238.834 0.01905
-0.14780 0.41647 0.36178 0.57112 0.17289 0.728 0.124 1238.864 0.01908
-0.14799 0.41702 0.36225 0.57186 0.17477 0.956 0.138 1238.894 0.01910
-0.14818 0.41756 0.36273 0.57261 0.17665 0.997 0.131 1238.924 0.01913
-0.14837 0.41810 0.36320 0.57336 0.17854 0.783 0.127 1238.954 0.01915
-0.14857 0.41865 0.36367 0.57410 0.18042 1.011 0.132 1238.984 0.01918
-0.14876 0.41919 0.36414 0.57485 0.18230 0.891 0.134 1239.014 0.01920
-0.14895 0.41974 0.36462 0.57560 0.18419 1.117 0.138 1239.044 0.01923
-0.14915 0.42028 0.36509 0.57634 0.18607 0.917 0.126 1239.073 0.01925
-0.14934 0.42083 0.36556 0.57709 0.18795 0.942 0.137 1239.103 0.01928
-0.14953 0.42137 0.36603 0.57784 0.18983 0.730 0.124 1239.133 0.01930
-0.14973 0.42191 0.36651 0.57858 0.19172 0.825 0.130 1239.163 0.01933
-0.14992 0.42246 0.36698 0.57933 0.19360 0.982 0.131 1239.193 0.01935
-0.15011 0.42300 0.36745 0.58007 0.19548 1.022 0.141 1239.223 0.01937
-0.15031 0.42355 0.36793 0.58082 0.19737 1.220 0.144 1239.253 0.01940
-0.15050 0.42409 0.36840 0.58157 0.19925 1.025 0.132 1239.283 0.01942
-0.15069 0.42464 0.36887 0.58231 0.20113 1.214 0.136 1239.313 0.01945
-0.15089 0.42518 0.36934 0.58306 0.20302 0.887 0.133 1239.342 0.01947
-0.15108 0.42572 0.36982 0.58381 0.20490 1.253 0.137 1239.372 0.01950
-0.15127 0.42627 0.37029 0.58455 0.20678 0.843 0.131 1239.402 0.01952
-0.15147 0.42681 0.37076 0.58530 0.20867 1.050 0.134 1239.432 0.01955
-0.15166 0.42736 0.37124 0.58605 0.21055 1.049 0.143 1239.462 0.01957
-0.15185 0.42790 0.37171 0.58679 0.21243 0.887 0.133 1239.492 0.01960
-0.15205 0.42845 0.37218 0.58754 0.21432 0.999 0.131 1239.522 0.01962
-0.15224 0.42899 0.37266 0.58829 0.21620 0.873 0.132 1239.552 0.01964
-0.15243 0.42954 0.37313 0.58904 0.21809 0.729 0.124 1239.581 0.01967
-0.15263 0.43008 0.37360 0.58978 0.21997 0.960 0.138 1239.611 0.01969
-0.15282 0.43063 0.37408 0.59053 0.22185 0.744 0.125 1239.641 0.01972
-0.15301 0.43117 0.37455 0.59128 0.22374 0.798 0.128 1239.671 0.01974
-0.15320 0.43172 0.37502 0.59202 0.22562 0.918 0.135 1239.701 0.01977
-0.15340 0.43226 0.37549 0.59277 0.22751 0.943 0.137 1239.731 0.01979
-0.15359 0.43280 0.37597 0.59352 0.22939 1.022 0.133 1239.761 0.01982
-0.15378 0.43335 0.37644 0.59426 0.23128 0.915 0.126 1239.791 0.01984
-0.15398 0.43389 0.37691 0.59501 0.23316 0.796 0.128 1239.820 0.01987
-0.15417 0.43444 0.37739 0.59576 0.23504 1.142 0.139 1239.850 0.01989
-0.15436 0.43498 0.37786 0.59650 0.23693 1.007 0.141 1239.880 0.01992
-0.15456 0.43553 0.37833 0.59725 0.23881 0.930 0.136 1239.910 0.01994
-0.15475 0.43607 0.37881 0.59800 0.24070 0.768 0.126 1239.940 0.01996
-0.15494 0.43662 0.37928 0.59875 0.24258 1.154 0.148 1239.970 0.01999
-0.15514 0.43716 0.37975 0.59949 0.24447 1.223 0.135 1240.000 0.02001
-0.15533 0.43771 0.38023 0.60024 0.24635 1.061 0.143 1240.030 0.02004
-0.15552 0.43825 0.38070 0.60099 0.24824 0.836 0.130 1240.059 0.02006
-0.15572 0.43880 0.38117 0.60174 0.25012 0.835 0.130 1240.089 0.02009
-0.15591 0.43934 0.38165 0.60248 0.25201 0.941 0.137 1240.119 0.02011
-0.15611 0.43989 0.38212 0.60323 0.25389 0.859 0.132 1240.149 0.02014
-0.15630 0.44043 0.38259 0.60398 0.25578 0.819 0.129 1240.179 0.02016
-0.15649 0.44098 0.38307 0.60472 0.25766 0.926 0.127 1240.209 0.02019
-0.15669 0.44152 0.38354 0.60547 0.25955 1.086 0.137 1240.239 0.02021
-0.15688 0.44207 0.38401 0.60622 0.26144 0.980 0.139 1240.269 0.02023
-0.15707 0.44261 0.38449 0.60697 0.26332 0.817 0.129 1240.299 0.02026
-0.15727 0.44316 0.38496 0.60771 0.26521 1.004 0.140 1240.328 0.02028
-0.15746 0.44370 0.38544 0.60846 0.26709 0.898 0.134 1240.358 0.02031
-0.15765 0.44425 0.38591 0.60921 0.26898 1.045 0.134 1240.388 0.02033
-0.15785 0.44479 0.38638 0.60996 0.27086 1.162 0.140 1240.418 0.02036
-0.15804 0.44534 0.38686 0.61070 0.27275 1.096 0.137 1240.448 0.02038
-0.15823 0.44588 0.38733 0.61145 0.27464 1.081 0.136 1240.478 0.02041
-0.15843 0.44643 0.38780 0.61220 0.27652 0.937 0.136 1240.508 0.02043
-0.15862 0.44697 0.38828 0.61295 0.27841 0.935 0.136 1240.538 0.02046
-0.15881 0.44752 0.38875 0.61370 0.28029 1.071 0.143 1240.567 0.02048
-0.15901 0.44806 0.38922 0.61444 0.28218 1.004 0.140 1240.597 0.02050
-0.15920 0.44861 0.38970 0.61519 0.28407 1.161 0.140 1240.627 0.02053
-0.15939 0.44916 0.39017 0.61594 0.28595 1.029 0.133 1240.657 0.02055
-0.15959 0.44970 0.39064 0.61669 0.28784 1.080 0.144 1240.687 0.02058
-0.15978 0.45025 0.39112 0.61743 0.28973 0.881 0.133 1240.717 0.02060
-0.15997 0.45079 0.39159 0.61818 0.29161 1.160 0.140 1240.747 0.02063
-0.16017 0.45134 0.39207 0.61893 0.29350 1.015 0.140 1240.777 0.02065
-0.16036 0.45188 0.39254 0.61968 0.29539 1.226 0.135 1240.806 0.02068
-0.16056 0.45243 0.39301 0.62043 0.29727 0.975 0.130 1240.836 0.02070
-0.16075 0.45297 0.39349 0.62117 0.29916 0.893 0.133 1240.866 0.02073
-0.16094 0.45352 0.39396 0.62192 0.30105 0.894 0.133 1240.896 0.02075
-0.16114 0.45406 0.39444 0.62267 0.30293 1.039 0.141 1240.926 0.02078
-0.16133 0.45461 0.39491 0.62342 0.30482 1.169 0.132 1240.956 0.02080
-0.16152 0.45515 0.39538 0.62417 0.30671 0.733 0.123 1240.986 0.02082
-0.16172 0.45570 0.39586 0.62491 0.30859 0.948 0.136 1241.016 0.02085
-0.16191 0.45625 0.39633 0.62566 0.31048 1.064 0.134 1241.045 0.02087
-0.16210 0.45679 0.39680 0.62641 0.31237 1.091 0.144 1241.075 0.02090
-0.16230 0.45734 0.39728 0.62716 0.31426 0.826 0.129 1241.105 0.02092
-0.16249 0.45788 0.39775 0.62791 0.31614 0.959 0.137 1241.135 0.02095
-0.16268 0.45843 0.39823 0.62866 0.31803 1.159 0.139 1241.165 0.02097
-0.16288 0.45897 0.39870 0.62940 0.31992 0.863 0.131 1241.195 0.02100
-0.16307 0.45952 0.39917 0.63015 0.32181 1.142 0.139 1241.225 0.02102
-0.16327 0.46007 0.39965 0.63090 0.32369 0.970 0.128 1241.255 0.02105
-0.16346 0.46061 0.40012 0.63165 0.32558 1.047 0.134 1241.285 0.02107
-0.16365 0.46116 0.40060 0.63240 0.32747 1.033 0.141 1241.314 0.02109
-0.16385 0.46170 0.40107 0.63315 0.32936 0.850 0.130 1241.344 0.02112
-0.16404 0.46225 0.40154 0.63389 0.33125 0.848 0.130 1241.374 0.02114
-0.16423 0.46279 0.40202 0.63464 0.33313 0.957 0.136 1241.404 0.02117
-0.16443 0.46334 0.40249 0.63539 0.33502 1.059 0.142 1241.434 0.02119
-0.16462 0.46389 0.40297 0.63614 0.33691 0.968 0.137 1241.464 0.02122
-0.16482 0.46443 0.40344 0.63689 0.33880 0.849 0.130 1241.494 0.02124
-0.16501 0.46498 0.40392 0.63764 0.34069 0.925 0.135 1241.524 0.02127
-0.16520 0.46552 0.40439 0.63838 0.34258 0.914 0.134 1241.553 0.02129
-0.16540 0.46607 0.40486 0.63913 0.34446 1.020 0.140 1241.583 0.02132
-0.16559 0.46661 0.40534 0.63988 0.34635 1.045 0.133 1241.613 0.02134
-0.16578 0.46716 0.40581 0.64063 0.34824 1.188 0.132 1241.643 0.02137
-0.16598 0.46771 0.40629 0.64138 0.35013 1.055 0.134 1241.673 0.02139
-0.16617 0.46825 0.40676 0.64213 0.35202 1.055 0.142 1241.703 0.02141
-0.16637 0.46880 0.40724 0.64288 0.35391 1.002 0.130 1241.733 0.02144
-0.16656 0.46934 0.40771 0.64363 0.35580 1.016 0.131 1241.763 0.02146
-0.16675 0.46989 0.40818 0.64437 0.35769 0.844 0.120 1241.792 0.02149
-0.16695 0.47044 0.40866 0.64512 0.35957 0.897 0.133 1241.822 0.02151
-0.16714 0.47098 0.40913 0.64587 0.36146 1.039 0.132 1241.852 0.02154
-0.16733 0.47153 0.40961 0.64662 0.36335 0.986 0.138 1241.882 0.02156
-0.16753 0.47208 0.41008 0.64737 0.36524 0.869 0.131 1241.912 0.02159
-0.16772 0.47262 0.41056 0.64812 0.36713 0.949 0.135 1241.942 0.02161
-0.16792 0.47317 0.41103 0.64887 0.36902 0.894 0.132 1241.972 0.02164
-0.16811 0.47371 0.41150 0.64962 0.37091 1.206 0.142 1242.002 0.02166
-0.16830 0.47426 0.41198 0.65037 0.37280 0.987 0.138 1242.031 0.02168
-0.16850 0.47481 0.41245 0.65111 0.37469 1.117 0.137 1242.061 0.02171
-0.16869 0.47535 0.41293 0.65186 0.37658 1.066 0.134 1242.091 0.02173
-0.16888 0.47590 0.41340 0.65261 0.37847 1.062 0.142 1242.121 0.02176
-0.16908 0.47645 0.41388 0.65336 0.38036 0.958 0.136 1242.151 0.02178
-0.16927 0.47699 0.41435 0.65411 0.38225 1.205 0.133 1242.181 0.02181
-0.16947 0.47754 0.41483 0.65486 0.38414 1.073 0.134 1242.211 0.02183
-0.16966 0.47808 0.41530 0.65561 0.38603 1.165 0.139 1242.241 0.02186
-0.16985 0.47863 0.41578 0.65636 0.38792 0.905 0.133 1242.271 0.02188
-0.17005 0.47918 0.41625 0.65711 0.38981 0.865 0.130 1242.300 0.02191
-0.17024 0.47972 0.41673 0.65786 0.39170 0.980 0.137 1242.330 0.02193
-0.17044 0.48027 0.41720 0.65861 0.39359 0.798 0.126 1242.360 0.02196
-0.17063 0.48082 0.41767 0.65936 0.39548 0.902 0.132 1242.390 0.02198
-0.17082 0.48136 0.41815 0.66011 0.39737 0.941 0.135 1242.420 0.02200
-0.17102 0.48191 0.41862 0.66085 0.39926 0.605 0.113 1242.450 0.02203
-0.17121 0.48246 0.41910 0.66160 0.40115 1.084 0.135 1242.480 0.02205
-0.17141 0.48300 0.41957 0.66235 0.40304 1.057 0.141 1242.510 0.02208
-0.17160 0.48355 0.42005 0.66310 0.40493 1.149 0.137 1242.539 0.02210
-0.17179 0.48409 0.42052 0.66385 0.40682 1.018 0.131 1242.569 0.02213
-0.17199 0.48464 0.42100 0.66460 0.40871 0.770 0.124 1242.599 0.02215
-0.17218 0.48519 0.42147 0.66535 0.41060 0.771 0.124 1242.629 0.02218
-0.17238 0.48573 0.42195 0.66610 0.41249 0.756 0.123 1242.659 0.02220
-0.17257 0.48628 0.42242 0.66685 0.41438 0.783 0.125 1242.689 0.02223
-0.17276 0.48683 0.42290 0.66760 0.41628 0.757 0.123 1242.719 0.02225
-0.17296 0.48737 0.42337 0.66835 0.41817 0.965 0.136 1242.749 0.02227
-0.17315 0.48792 0.42385 0.66910 0.42006 0.718 0.121 1242.778 0.02230
-0.17335 0.48847 0.42432 0.66985 0.42195 0.935 0.134 1242.808 0.02232
-0.17354 0.48901 0.42480 0.67060 0.42384 1.028 0.139 1242.838 0.02235
-0.17373 0.48956 0.42527 0.67135 0.42573 0.859 0.129 1242.868 0.02237
-0.17393 0.49011 0.42575 0.67210 0.42762 1.105 0.135 1242.898 0.02240
-0.17412 0.49066 0.42622 0.67285 0.42951 0.962 0.135 1242.928 0.02242
-0.17432 0.49120 0.42670 0.67360 0.43141 1.182 0.132 1242.958 0.02245
-0.17451 0.49175 0.42717 0.67435 0.43330 0.845 0.119 1242.988 0.02247
-0.17470 0.49230 0.42765 0.67510 0.43519 1.052 0.132 1243.017 0.02250
-0.17490 0.49284 0.42812 0.67585 0.43708 0.974 0.136 1243.047 0.02252
-0.17509 0.49339 0.42860 0.67660 0.43897 0.755 0.123 1243.077 0.02254
-0.17529 0.49394 0.42907 0.67735 0.44087 0.986 0.136 1243.107 0.02257
-0.17548 0.49448 0.42955 0.67810 0.44276 0.985 0.136 1243.137 0.02259
-0.17567 0.49503 0.43002 0.67885 0.44465 1.022 0.130 1243.167 0.02262
-0.17587 0.49558 0.43050 0.67960 0.44654 1.051 0.132 1243.197 0.02264
-0.17606 0.49612 0.43097 0.68035 0.44843 0.865 0.130 1243.227 0.02267
-0.17626 0.49667 0.43145 0.68110 0.45033 0.853 0.129 1243.257 0.02269
-0.17645 0.49722 0.43192 0.68185 0.45222 1.049 0.132 1243.286 0.02272
-0.17664 0.49777 0.43240 0.68260 0.45411 0.648 0.115 1243.316 0.02274
-0.17684 0.49831 0.43287 0.68335 0.45600 0.905 0.132 1243.346 0.02277
-0.17703 0.49886 0.43335 0.68410 0.45790 0.917 0.132 1243.376 0.02279
-0.17723 0.49941 0.43382 0.68485 0.45979 0.929 0.125 1243.406 0.02282
-0.17742 0.49995 0.43430 0.68560 0.46168 1.070 0.133 1243.436 0.02284
-0.17762 0.50050 0.43477 0.68635 0.46357 0.697 0.119 1243.466 0.02286
-0.17781 0.50105 0.43525 0.68710 0.46547 0.957 0.126 1243.496 0.02289
-0.17800 0.50159 0.43572 0.68785 0.46736 0.889 0.131 1243.525 0.02291
-0.17820 0.50214 0.43620 0.68860 0.46925 0.914 0.123 1243.555 0.02294
-0.17839 0.50269 0.43668 0.68935 0.47114 1.131 0.128 1243.585 0.02296
-0.17859 0.50324 0.43715 0.69010 0.47304 0.888 0.130 1243.615 0.02299
-0.17878 0.50378 0.43763 0.69085 0.47493 0.927 0.133 1243.645 0.02301
-0.17897 0.50433 0.43810 0.69160 0.47682 0.876 0.130 1243.675 0.02304
-0.17917 0.50488 0.43858 0.69235 0.47872 0.864 0.129 1243.705 0.02306
-0.17936 0.50543 0.43905 0.69310 0.48061 0.940 0.133 1243.735 0.02309
-0.17956 0.50597 0.43953 0.69385 0.48250 0.965 0.135 1243.764 0.02311
-0.17975 0.50652 0.44000 0.69461 0.48440 1.099 0.133 1243.794 0.02313
-0.17995 0.50707 0.44048 0.69536 0.48629 0.860 0.129 1243.824 0.02316
-0.18014 0.50762 0.44095 0.69611 0.48818 0.929 0.124 1243.854 0.02318
-0.18033 0.50816 0.44143 0.69686 0.49008 1.058 0.131 1243.884 0.02321
-0.18053 0.50871 0.44191 0.69761 0.49197 1.048 0.139 1243.914 0.02323
-0.18072 0.50926 0.44238 0.69836 0.49387 0.966 0.126 1243.944 0.02326
-0.18092 0.50980 0.44286 0.69911 0.49576 0.865 0.128 1243.974 0.02328
-0.18111 0.51035 0.44333 0.69986 0.49765 0.848 0.127 1244.003 0.02331
-0.18131 0.51090 0.44381 0.70061 0.49955 0.910 0.131 1244.033 0.02333
-0.18150 0.51145 0.44428 0.70136 0.50144 1.124 0.136 1244.063 0.02336
-0.18169 0.51199 0.44476 0.70211 0.50334 1.136 0.134 1244.093 0.02338
-0.18189 0.51254 0.44523 0.70286 0.50523 1.065 0.132 1244.123 0.02341
-0.18208 0.51309 0.44571 0.70361 0.50712 0.734 0.119 1244.153 0.02343
-0.18228 0.51364 0.44619 0.70437 0.50902 1.001 0.136 1244.183 0.02345
-0.18247 0.51419 0.44666 0.70512 0.51091 1.002 0.137 1244.213 0.02348
-0.18267 0.51473 0.44714 0.70587 0.51281 1.007 0.137 1244.243 0.02350
-0.18286 0.51528 0.44761 0.70662 0.51470 0.928 0.132 1244.272 0.02353
-0.18305 0.51583 0.44809 0.70737 0.51660 1.219 0.132 1244.302 0.02355
-0.18325 0.51638 0.44856 0.70812 0.51849 0.956 0.126 1244.332 0.02358
-0.18344 0.51692 0.44904 0.70887 0.52039 1.026 0.137 1244.362 0.02360
-0.18364 0.51747 0.44952 0.70962 0.52228 0.771 0.123 1244.392 0.02363
-0.18383 0.51802 0.44999 0.71037 0.52418 1.052 0.131 1244.422 0.02365
-0.18403 0.51857 0.45047 0.71112 0.52607 0.884 0.129 1244.452 0.02368
-0.18422 0.51911 0.45094 0.71188 0.52797 1.114 0.135 1244.482 0.02370
-0.18442 0.51966 0.45142 0.71263 0.52986 1.008 0.129 1244.511 0.02372
-0.18461 0.52021 0.45190 0.71338 0.53176 0.997 0.136 1244.541 0.02375
-0.18480 0.52076 0.45237 0.71413 0.53365 0.872 0.120 1244.571 0.02377
