x y z dist_scaled dist_frac flux_norm sig_norm wavelength redshift
0.11452 0.04612 0.48718 0.50258 0.00000 0.992 0.217 1236.115 0.01682
0.11469 0.04618 0.48791 0.50333 0.00188 1.020 0.221 1236.145 0.01684
0.11486 0.04625 0.48863 0.50407 0.00375 0.961 0.216 1236.175 0.01687
0.11503 0.04632 0.48935 0.50481 0.00563 0.938 0.213 1236.205 0.01689
0.11520 0.04639 0.49007 0.50556 0.00751 0.766 0.198 1236.235 0.01692
0.11536 0.04646 0.49079 0.50630 0.00938 0.995 0.219 1236.265 0.01694
0.11553 0.04652 0.49151 0.50705 0.01126 1.221 0.236 1236.295 0.01697
0.11570 0.04659 0.49223 0.50779 0.01313 1.077 0.226 1236.325 0.01699
0.11587 0.04666 0.49295 0.50853 0.01501 0.911 0.212 1236.355 0.01701
0.11604 0.04673 0.49367 0.50928 0.01689 0.797 0.202 1236.384 0.01704
0.11621 0.04680 0.49439 0.51002 0.01876 0.995 0.219 1236.414 0.01706
0.11638 0.04687 0.49512 0.51077 0.02064 1.278 0.242 1236.444 0.01709
0.11655 0.04693 0.49584 0.51151 0.02252 0.909 0.212 1236.474 0.01711
0.11672 0.04700 0.49656 0.51225 0.02440 0.747 0.197 1236.504 0.01714
0.11689 0.04707 0.49728 0.51300 0.02627 1.204 0.240 1236.534 0.01716
0.11706 0.04714 0.49800 0.51374 0.02815 1.013 0.222 1236.564 0.01719
0.11723 0.04721 0.49872 0.51449 0.03003 1.069 0.229 1236.594 0.01721
0.11740 0.04728 0.49944 0.51523 0.03190 0.777 0.200 1236.623 0.01724
0.11757 0.04734 0.50017 0.51597 0.03378 0.861 0.208 1236.653 0.01726
0.11774 0.04741 0.50089 0.51672 0.03566 0.965 0.220 1236.683 0.01729
0.11791 0.04748 0.50161 0.51746 0.03754 0.920 0.218 1236.713 0.01731
0.11808 0.04755 0.50233 0.51821 0.03941 1.026 0.225 1236.743 0.01733
0.11825 0.04762 0.50305 0.51895 0.04129 1.228 0.241 1236.773 0.01736
0.11842 0.04769 0.50377 0.51970 0.04317 0.918 0.218 1236.803 0.01738
0.11859 0.04775 0.50449 0.52044 0.04505 0.720 0.200 1236.833 0.01741
0.11876 0.04782 0.50522 0.52118 0.04692 0.994 0.223 1236.862 0.01743
0.11893 0.04789 0.50594 0.52193 0.04880 0.724 0.200 1236.892 0.01746
0.11910 0.04796 0.50666 0.52267 0.05068 0.792 0.207 1236.922 0.01748
0.11926 0.04803 0.50738 0.52342 0.05256 0.926 0.218 1236.952 0.01751
0.11943 0.04810 0.50810 0.52416 0.05444 0.806 0.207 1236.982 0.01753
0.11960 0.04816 0.50882 0.52491 0.05631 0.921 0.219 1237.012 0.01756
0.11977 0.04823 0.50955 0.52565 0.05819 1.167 0.236 1237.042 0.01758
0.11994 0.04830 0.51027 0.52640 0.06007 1.073 0.226 1237.072 0.01760
0.12011 0.04837 0.51099 0.52714 0.06195 1.194 0.240 1237.101 0.01763
0.12028 0.04844 0.51171 0.52788 0.06383 0.992 0.225 1237.131 0.01765
0.12045 0.04851 0.51243 0.52863 0.06571 0.789 0.205 1237.161 0.01768
0.12062 0.04857 0.51315 0.52937 0.06758 0.936 0.220 1237.191 0.01770
0.12079 0.04864 0.51388 0.53012 0.06946 1.252 0.245 1237.221 0.01773
0.12096 0.04871 0.51460 0.53086 0.07134 0.938 0.223 1237.251 0.01775
0.12113 0.04878 0.51532 0.53161 0.07322 1.027 0.230 1237.281 0.01778
0.12130 0.04885 0.51604 0.53235 0.07510 1.084 0.232 1237.311 0.01780
0.12147 0.04892 0.51676 0.53310 0.07698 0.939 0.221 1237.341 0.01783
0.12164 0.04898 0.51749 0.53384 0.07886 0.998 0.228 1237.370 0.01785
0.12181 0.04905 0.51821 0.53459 0.08074 1.202 0.244 1237.400 0.01788
0.12198 0.04912 0.51893 0.53533 0.08261 0.941 0.221 1237.430 0.01790
0.12215 0.04919 0.51965 0.53608 0.08449 0.910 0.215 1237.460 0.01792
0.12232 0.04926 0.52037 0.53682 0.08637 0.856 0.215 1237.490 0.01795
0.12249 0.04933 0.52110 0.53757 0.08825 1.316 0.248 1237.520 0.01797
0.12266 0.04939 0.52182 0.53831 0.09013 1.086 0.233 1237.550 0.01800
0.12283 0.04946 0.52254 0.53906 0.09201 1.058 0.232 1237.580 0.01802
0.12300 0.04953 0.52326 0.53980 0.09389 1.085 0.231 1237.609 0.01805
0.12317 0.04960 0.52399 0.54055 0.09577 1.174 0.240 1237.639 0.01807
0.12334 0.04967 0.52471 0.54129 0.09765 1.030 0.229 1237.669 0.01810
0.12351 0.04974 0.52543 0.54204 0.09953 1.263 0.247 1237.699 0.01812
0.12368 0.04980 0.52615 0.54278 0.10141 1.059 0.229 1237.729 0.01815
0.12385 0.04987 0.52688 0.54353 0.10329 0.509 0.182 1237.759 0.01817
0.12402 0.04994 0.52760 0.54427 0.10517 1.001 0.222 1237.789 0.01819
0.12419 0.05001 0.52832 0.54502 0.10705 0.974 0.222 1237.819 0.01822
0.12436 0.05008 0.52904 0.54576 0.10893 0.946 0.220 1237.848 0.01824
0.12453 0.05015 0.52976 0.54651 0.11081 0.861 0.215 1237.878 0.01827
0.12470 0.05021 0.53049 0.54725 0.11269 1.005 0.227 1237.908 0.01829
0.12487 0.05028 0.53121 0.54800 0.11457 0.834 0.215 1237.938 0.01832
0.12504 0.05035 0.53193 0.54874 0.11645 1.299 0.250 1237.968 0.01834
0.12521 0.05042 0.53265 0.54949 0.11833 0.949 0.223 1237.998 0.01837
0.12538 0.05049 0.53338 0.55024 0.12021 1.096 0.235 1238.028 0.01839
0.12555 0.05056 0.53410 0.55098 0.12209 1.272 0.248 1238.058 0.01842
0.12572 0.05062 0.53482 0.55173 0.12397 1.187 0.244 1238.087 0.01844
0.12589 0.05069 0.53555 0.55247 0.12585 0.888 0.213 1238.117 0.01847
0.12605 0.05076 0.53627 0.55322 0.12773 1.066 0.231 1238.147 0.01849
0.12622 0.05083 0.53699 0.55396 0.12961 1.011 0.229 1238.177 0.01851
0.12639 0.05090 0.53771 0.55471 0.13149 1.268 0.245 1238.207 0.01854
0.12656 0.05097 0.53844 0.55545 0.13338 0.953 0.223 1238.237 0.01856
0.12673 0.05103 0.53916 0.55620 0.13526 1.157 0.238 1238.267 0.01859
0.12690 0.05110 0.53988 0.55695 0.13714 1.154 0.236 1238.297 0.01861
0.12707 0.05117 0.54060 0.55769 0.13902 1.214 0.243 1238.327 0.01864
0.12724 0.05124 0.54133 0.55844 0.14090 1.155 0.236 1238.356 0.01866
0.12741 0.05131 0.54205 0.55918 0.14278 1.039 0.227 1238.386 0.01869
0.12758 0.05138 0.54277 0.55993 0.14466 1.215 0.243 1238.416 0.01871
0.12775 0.05145 0.54350 0.56067 0.14654 1.013 0.224 1238.446 0.01874
0.12792 0.05151 0.54422 0.56142 0.14843 1.013 0.227 1238.476 0.01876
0.12809 0.05158 0.54494 0.56217 0.15031 0.868 0.217 1238.506 0.01878
0.12826 0.05165 0.54567 0.56291 0.15219 0.988 0.229 1238.536 0.01881
0.12843 0.05172 0.54639 0.56366 0.15407 1.015 0.230 1238.566 0.01883
0.12860 0.05179 0.54711 0.56440 0.15595 0.899 0.217 1238.595 0.01886
0.12877 0.05186 0.54783 0.56515 0.15783 0.721 0.201 1238.625 0.01888
0.12894 0.05192 0.54856 0.56590 0.15972 0.690 0.195 1238.655 0.01891
0.12911 0.05199 0.54928 0.56664 0.16160 0.869 0.215 1238.685 0.01893
0.12928 0.05206 0.55000 0.56739 0.16348 0.725 0.207 1238.715 0.01896
0.12945 0.05213 0.55073 0.56813 0.16536 0.810 0.210 1238.745 0.01898
0.12962 0.05220 0.55145 0.56888 0.16724 1.339 0.253 1238.775 0.01901
0.12979 0.05227 0.55217 0.56963 0.16913 0.987 0.226 1238.805 0.01903
0.12996 0.05234 0.55290 0.57037 0.17101 0.988 0.228 1238.834 0.01905
0.13013 0.05240 0.55362 0.57112 0.17289 0.869 0.213 1238.864 0.01908
0.13030 0.05247 0.55434 0.57186 0.17477 0.861 0.216 1238.894 0.01910
0.13047 0.05254 0.55507 0.57261 0.17665 0.709 0.202 1238.924 0.01913
0.13064 0.05261 0.55579 0.57336 0.17854 0.900 0.221 1238.954 0.01915
0.13081 0.05268 0.55651 0.57410 0.18042 0.550 0.187 1238.984 0.01918
0.13098 0.05275 0.55724 0.57485 0.18230 0.580 0.187 1239.014 0.01920
0.13115 0.05281 0.55796 0.57560 0.18419 0.578 0.186 1239.044 0.01923
0.13132 0.05288 0.55868 0.57634 0.18607 0.879 0.218 1239.073 0.01925
0.13149 0.05295 0.55941 0.57709 0.18795 0.776 0.211 1239.103 0.01928
0.13166 0.05302 0.56013 0.57784 0.18983 0.878 0.219 1239.133 0.01930
0.13183 0.05309 0.56086 0.57858 0.19172 0.902 0.222 1239.163 0.01933
0.13200 0.05316 0.56158 0.57933 0.19360 1.068 0.234 1239.193 0.01935
0.13217 0.05323 0.56230 0.58007 0.19548 0.863 0.217 1239.223 0.01937
0.13234 0.05329 0.56303 0.58082 0.19737 0.837 0.214 1239.253 0.01940
0.13251 0.05336 0.56375 0.58157 0.19925 0.992 0.227 1239.283 0.01942
0.13268 0.05343 0.56447 0.58231 0.20113 1.172 0.242 1239.313 0.01945
0.13285 0.05350 0.56520 0.58306 0.20302 0.691 0.197 1239.342 0.01947
0.13303 0.05357 0.56592 0.58381 0.20490 1.115 0.237 1239.372 0.01950
0.13320 0.05364 0.56664 0.58455 0.20678 0.927 0.220 1239.402 0.01952
0.13337 0.05371 0.56737 0.58530 0.20867 1.232 0.244 1239.432 0.01955
0.13354 0.05377 0.56809 0.58605 0.21055 0.785 0.208 1239.462 0.01957
0.13371 0.05384 0.56882 0.58679 0.21243 0.876 0.215 1239.492 0.01960
0.13388 0.05391 0.56954 0.58754 0.21432 0.874 0.215 1239.522 0.01962
0.13405 0.05398 0.57026 0.58829 0.21620 0.966 0.223 1239.552 0.01964
0.13422 0.05405 0.57099 0.58904 0.21809 1.058 0.231 1239.581 0.01967
0.13439 0.05412 0.57171 0.58978 0.21997 1.297 0.254 1239.611 0.01969
0.13456 0.05418 0.57244 0.59053 0.22185 0.883 0.222 1239.641 0.01972
0.13473 0.05425 0.57316 0.59128 0.22374 0.972 0.226 1239.671 0.01974
0.13490 0.05432 0.57388 0.59202 0.22562 0.881 0.218 1239.701 0.01977
0.13507 0.05439 0.57461 0.59277 0.22751 1.120 0.238 1239.731 0.01979
0.13524 0.05446 0.57533 0.59352 0.22939 1.121 0.239 1239.761 0.01982
0.13541 0.05453 0.57606 0.59426 0.23128 1.064 0.236 1239.791 0.01984
0.13558 0.05460 0.57678 0.59501 0.23316 1.033 0.234 1239.820 0.01987
0.13575 0.05466 0.57750 0.59576 0.23504 1.062 0.234 1239.850 0.01989
0.13592 0.05473 0.57823 0.59650 0.23693 1.276 0.253 1239.880 0.01992
0.13609 0.05480 0.57895 0.59725 0.23881 0.800 0.216 1239.910 0.01994
0.13626 0.05487 0.57968 0.59800 0.24070 0.740 0.211 1239.940 0.01996
0.13643 0.05494 0.58040 0.59875 0.24258 1.039 0.234 1239.970 0.01999
0.13660 0.05501 0.58113 0.59949 0.24447 1.280 0.256 1240.000 0.02001
0.13677 0.05508 0.58185 0.60024 0.24635 1.099 0.242 1240.030 0.02004
0.13694 0.05514 0.58257 0.60099 0.24824 0.794 0.211 1240.059 0.02006
0.13711 0.05521 0.58330 0.60174 0.25012 1.432 0.264 1240.089 0.02009
0.13728 0.05528 0.58402 0.60248 0.25201 1.166 0.247 1240.119 0.02011
0.13745 0.05535 0.58475 0.60323 0.25389 0.830 0.217 1240.149 0.02014
0.13762 0.05542 0.58547 0.60398 0.25578 1.050 0.238 1240.179 0.02016
0.13779 0.05549 0.58620 0.60472 0.25766 0.843 0.217 1240.209 0.02019
0.13796 0.05556 0.58692 0.60547 0.25955 1.383 0.260 1240.239 0.02021
0.13813 0.05562 0.58765 0.60622 0.26144 1.078 0.237 1240.269 0.02023
0.13830 0.05569 0.58837 0.60697 0.26332 0.852 0.220 1240.299 0.02026
0.13847 0.05576 0.58909 0.60771 0.26521 0.746 0.209 1240.328 0.02028
0.13864 0.05583 0.58982 0.60846 0.26709 0.782 0.212 1240.358 0.02031
0.13881 0.05590 0.59054 0.60921 0.26898 1.124 0.240 1240.388 0.02033
0.13898 0.05597 0.59127 0.60996 0.27086 1.117 0.249 1240.418 0.02036
0.13915 0.05604 0.59199 0.61070 0.27275 1.166 0.251 1240.448 0.02038
0.13932 0.05610 0.59272 0.61145 0.27464 1.449 0.289 1240.478 0.02041
0.13949 0.05617 0.59344 0.61220 0.27652 0.920 0.223 1240.508 0.02043
0.13966 0.05624 0.59417 0.61295 0.27841 0.876 0.220 1240.538 0.02046
0.13984 0.05631 0.59489 0.61370 0.28029 0.741 0.206 1240.567 0.02048
0.14001 0.05638 0.59562 0.61444 0.28218 1.214 0.250 1240.597 0.02050
0.14018 0.05645 0.59634 0.61519 0.28407 0.816 0.214 1240.627 0.02053
0.14035 0.05652 0.59707 0.61594 0.28595 1.202 0.251 1240.657 0.02055
0.14052 0.05658 0.59779 0.61669 0.28784 0.714 0.203 1240.687 0.02058
0.14069 0.05665 0.59852 0.61743 0.28973 1.279 0.255 1240.717 0.02060
0.14086 0.05672 0.59924 0.61818 0.29161 1.051 0.237 1240.747 0.02063
0.14103 0.05679 0.59997 0.61893 0.29350 1.130 0.241 1240.777 0.02065
0.14120 0.05686 0.60069 0.61968 0.29539 1.347 0.258 1240.806 0.02068
0.14137 0.05693 0.60142 0.62043 0.29727 1.070 0.239 1240.836 0.02070
0.14154 0.05700 0.60214 0.62117 0.29916 0.913 0.226 1240.866 0.02073
0.14171 0.05707 0.60287 0.62192 0.30105 0.840 0.215 1240.896 0.02075
0.14188 0.05713 0.60359 0.62267 0.30293 1.215 0.251 1240.926 0.02078
0.14205 0.05720 0.60432 0.62342 0.30482 0.708 0.204 1240.956 0.02080
0.14222 0.05727 0.60504 0.62417 0.30671 1.120 0.245 1240.986 0.02082
0.14239 0.05734 0.60577 0.62491 0.30859 0.793 0.213 1241.016 0.02085
0.14256 0.05741 0.60649 0.62566 0.31048 0.471 0.178 1241.045 0.02087
0.14273 0.05748 0.60722 0.62641 0.31237 1.130 0.242 1241.075 0.02090
0.14290 0.05755 0.60794 0.62716 0.31426 0.725 0.210 1241.105 0.02092
0.14307 0.05761 0.60867 0.62791 0.31614 0.872 0.221 1241.135 0.02095
0.14324 0.05768 0.60939 0.62866 0.31803 1.212 0.252 1241.165 0.02097
0.14341 0.05775 0.61012 0.62940 0.31992 1.336 0.259 1241.195 0.02100
0.14358 0.05782 0.61084 0.63015 0.32181 1.041 0.233 1241.225 0.02102
0.14376 0.05789 0.61157 0.63090 0.32369 0.936 0.225 1241.255 0.02105
0.14393 0.05796 0.61230 0.63165 0.32558 0.903 0.225 1241.285 0.02107
0.14410 0.05803 0.61302 0.63240 0.32747 1.022 0.234 1241.314 0.02109
0.14427 0.05810 0.61375 0.63315 0.32936 1.163 0.245 1241.344 0.02112
0.14444 0.05816 0.61447 0.63389 0.33125 1.073 0.238 1241.374 0.02114
0.14461 0.05823 0.61520 0.63464 0.33313 0.864 0.222 1241.404 0.02117
0.14478 0.05830 0.61592 0.63539 0.33502 0.704 0.208 1241.434 0.02119
0.14495 0.05837 0.61665 0.63614 0.33691 0.804 0.214 1241.464 0.02122
0.14512 0.05844 0.61737 0.63689 0.33880 0.866 0.217 1241.494 0.02124
0.14529 0.05851 0.61810 0.63764 0.34069 1.118 0.243 1241.524 0.02127
0.14546 0.05858 0.61883 0.63838 0.34258 0.985 0.231 1241.553 0.02129
0.14563 0.05864 0.61955 0.63913 0.34446 1.104 0.241 1241.583 0.02132
0.14580 0.05871 0.62028 0.63988 0.34635 0.931 0.228 1241.613 0.02134
0.14597 0.05878 0.62100 0.64063 0.34824 0.882 0.226 1241.643 0.02137
0.14614 0.05885 0.62173 0.64138 0.35013 0.809 0.214 1241.673 0.02139
0.14631 0.05892 0.62245 0.64213 0.35202 0.748 0.212 1241.703 0.02141
0.14648 0.05899 0.62318 0.64288 0.35391 0.926 0.222 1241.733 0.02144
0.14666 0.05906 0.62391 0.64363 0.35580 0.717 0.206 1241.763 0.02146
0.14683 0.05913 0.62463 0.64437 0.35769 0.653 0.196 1241.792 0.02149
0.14700 0.05919 0.62536 0.64512 0.35957 0.963 0.229 1241.822 0.02151
0.14717 0.05926 0.62608 0.64587 0.36146 1.057 0.239 1241.852 0.02154
0.14734 0.05933 0.62681 0.64662 0.36335 1.020 0.233 1241.882 0.02156
0.14751 0.05940 0.62754 0.64737 0.36524 1.025 0.234 1241.912 0.02159
0.14768 0.05947 0.62826 0.64812 0.36713 0.987 0.229 1241.942 0.02161
0.14785 0.05954 0.62899 0.64887 0.36902 1.086 0.239 1241.972 0.02164
0.14802 0.05961 0.62971 0.64962 0.37091 0.959 0.226 1242.002 0.02166
0.14819 0.05968 0.63044 0.65037 0.37280 0.714 0.203 1242.031 0.02168
0.14836 0.05974 0.63117 0.65111 0.37469 0.896 0.221 1242.061 0.02171
0.14853 0.05981 0.63189 0.65186 0.37658 1.110 0.240 1242.091 0.02173
0.14870 0.05988 0.63262 0.65261 0.37847 0.864 0.218 1242.121 0.02176
0.14887 0.05995 0.63334 0.65336 0.38036 0.832 0.215 1242.151 0.02178
0.14904 0.06002 0.63407 0.65411 0.38225 0.620 0.194 1242.181 0.02181
0.14921 0.06009 0.63480 0.65486 0.38414 1.078 0.237 1242.211 0.02183
0.14939 0.06016 0.63552 0.65561 0.38603 0.993 0.229 1242.241 0.02186
0.14956 0.06023 0.63625 0.65636 0.38792 0.868 0.218 1242.271 0.02188
0.14973 0.06029 0.63698 0.65711 0.38981 0.998 0.234 1242.300 0.02191
0.14990 0.06036 0.63770 0.65786 0.39170 0.754 0.213 1242.330 0.02193
0.15007 0.06043 0.63843 0.65861 0.39359 0.781 0.213 1242.360 0.02196
0.15024 0.06050 0.63915 0.65936 0.39548 0.748 0.210 1242.390 0.02198
0.15041 0.06057 0.63988 0.66011 0.39737 0.780 0.213 1242.420 0.02200
0.15058 0.06064 0.64061 0.66085 0.39926 1.082 0.238 1242.450 0.02203
0.15075 0.06071 0.64133 0.66160 0.40115 0.840 0.216 1242.480 0.02205
0.15092 0.06078 0.64206 0.66235 0.40304 0.843 0.216 1242.510 0.02208
0.15109 0.06084 0.64279 0.66310 0.40493 1.144 0.243 1242.539 0.02210
0.15126 0.06091 0.64351 0.66385 0.40682 0.783 0.213 1242.569 0.02213
0.15143 0.06098 0.64424 0.66460 0.40871 0.818 0.219 1242.599 0.02215
0.15161 0.06105 0.64497 0.66535 0.41060 0.780 0.213 1242.629 0.02218
0.15178 0.06112 0.64569 0.66610 0.41249 0.962 0.227 1242.659 0.02220
0.15195 0.06119 0.64642 0.66685 0.41438 1.116 0.243 1242.689 0.02223
0.15212 0.06126 0.64715 0.66760 0.41628 1.082 0.238 1242.719 0.02225
0.15229 0.06133 0.64787 0.66835 0.41817 0.782 0.210 1242.749 0.02227
0.15246 0.06139 0.64860 0.66910 0.42006 1.304 0.255 1242.778 0.02230
0.15263 0.06146 0.64933 0.66985 0.42195 1.119 0.241 1242.808 0.02232
0.15280 0.06153 0.65005 0.67060 0.42384 0.845 0.220 1242.838 0.02235
0.15297 0.06160 0.65078 0.67135 0.42573 0.965 0.227 1242.868 0.02237
0.15314 0.06167 0.65151 0.67210 0.42762 0.845 0.219 1242.898 0.02240
0.15331 0.06174 0.65223 0.67285 0.42951 0.996 0.233 1242.928 0.02242
0.15348 0.06181 0.65296 0.67360 0.43141 0.907 0.225 1242.958 0.02245
0.15366 0.06188 0.65369 0.67435 0.43330 0.939 0.227 1242.988 0.02247
0.15383 0.06194 0.65441 0.67510 0.43519 0.938 0.228 1243.017 0.02250
0.15400 0.06201 0.65514 0.67585 0.43708 0.783 0.214 1243.047 0.02252
0.15417 0.06208 0.65587 0.67660 0.43897 0.840 0.217 1243.077 0.02254
0.15434 0.06215 0.65660 0.67735 0.44087 1.003 0.236 1243.107 0.02257
0.15451 0.06222 0.65732 0.67810 0.44276 1.091 0.241 1243.137 0.02259
0.15468 0.06229 0.65805 0.67885 0.44465 1.125 0.244 1243.167 0.02262
0.15485 0.06236 0.65878 0.67960 0.44654 0.783 0.211 1243.197 0.02264
0.15502 0.06243 0.65950 0.68035 0.44843 0.874 0.217 1243.227 0.02267
0.15519 0.06250 0.66023 0.68110 0.45033 0.966 0.228 1243.257 0.02269
0.15536 0.06256 0.66096 0.68185 0.45222 1.061 0.236 1243.286 0.02272
0.15554 0.06263 0.66168 0.68260 0.45411 1.217 0.254 1243.316 0.02274
0.15571 0.06270 0.66241 0.68335 0.45600 0.720 0.205 1243.346 0.02277
0.15588 0.06277 0.66314 0.68410 0.45790 1.026 0.234 1243.376 0.02279
0.15605 0.06284 0.66387 0.68485 0.45979 0.999 0.230 1243.406 0.02282
0.15622 0.06291 0.66459 0.68560 0.46168 1.031 0.233 1243.436 0.02284
0.15639 0.06298 0.66532 0.68635 0.46357 0.877 0.220 1243.466 0.02286
0.15656 0.06305 0.66605 0.68710 0.46547 1.069 0.244 1243.496 0.02289
0.15673 0.06311 0.66678 0.68785 0.46736 1.157 0.247 1243.525 0.02291
0.15690 0.06318 0.66750 0.68860 0.46925 1.191 0.249 1243.555 0.02294
0.15707 0.06325 0.66823 0.68935 0.47114 0.975 0.231 1243.585 0.02296
0.15725 0.06332 0.66896 0.69010 0.47304 1.498 0.272 1243.615 0.02299
0.15742 0.06339 0.66969 0.69085 0.47493 0.857 0.224 1243.645 0.02301
0.15759 0.06346 0.67041 0.69160 0.47682 0.987 0.234 1243.675 0.02304
0.15776 0.06353 0.67114 0.69235 0.47872 1.099 0.245 1243.705 0.02306
0.15793 0.06360 0.67187 0.69310 0.48061 0.952 0.232 1243.735 0.02309
0.15810 0.06367 0.67260 0.69385 0.48250 1.139 0.245 1243.764 0.02311
0.15827 0.06373 0.67332 0.69461 0.48440 1.099 0.244 1243.794 0.02313
0.15844 0.06380 0.67405 0.69536 0.48629 0.882 0.226 1243.824 0.02316
0.15861 0.06387 0.67478 0.69611 0.48818 0.819 0.217 1243.854 0.02318
0.15878 0.06394 0.67551 0.69686 0.49008 1.044 0.240 1243.884 0.02321
0.15896 0.06401 0.67623 0.69761 0.49197 1.300 0.261 1243.914 0.02323
0.15913 0.06408 0.67696 0.69836 0.49387 1.254 0.257 1243.944 0.02326
0.15930 0.06415 0.67769 0.69911 0.49576 1.228 0.254 1243.974 0.02328
0.15947 0.06422 0.67842 0.69986 0.49765 1.094 0.241 1244.003 0.02331
0.15964 0.06429 0.67915 0.70061 0.49955 0.846 0.221 1244.033 0.02333
0.15981 0.06435 0.67987 0.70136 0.50144 1.158 0.247 1244.063 0.02336
0.15998 0.06442 0.68060 0.70211 0.50334 1.231 0.254 1244.093 0.02338
0.16015 0.06449 0.68133 0.70286 0.50523 0.868 0.226 1244.123 0.02341
0.16032 0.06456 0.68206 0.70361 0.50712 1.082 0.242 1244.153 0.02343
0.16050 0.06463 0.68278 0.70437 0.50902 1.353 0.264 1244.183 0.02345
0.16067 0.06470 0.68351 0.70512 0.51091 1.415 0.268 1244.213 0.02348
0.16084 0.06477 0.68424 0.70587 0.51281 0.891 0.226 1244.243 0.02350
0.16101 0.06484 0.68497 0.70662 0.51470 0.759 0.215 1244.272 0.02353
0.16118 0.06491 0.68570 0.70737 0.51660 1.125 0.245 1244.302 0.02355
0.16135 0.06497 0.68642 0.70812 0.51849 0.984 0.235 1244.332 0.02358
0.16152 0.06504 0.68715 0.70887 0.52039 1.411 0.269 1244.362 0.02360
0.16169 0.06511 0.68788 0.70962 0.52228 1.020 0.240 1244.392 0.02363
0.16186 0.06518 0.68861 0.71037 0.52418 1.194 0.252 1244.422 0.02365
0.16204 0.06525 0.68934 0.71112 0.52607 0.858 0.224 1244.452 0.02368
0.16221 0.06532 0.69007 0.71188 0.52797 1.100 0.243 1244.482 0.02370
0.16238 0.06539 0.69079 0.71263 0.52986 0.969 0.229 1244.511 0.02372
0.16255 0.06546 0.69152 0.71338 0.53176 1.004 0.235 1244.541 0.02375
0.16272 0.06553 0.69225 0.71413 0.53365 1.154 0.245 1244.571 0.02377
0.16289 0.06559 0.69298 0.71488 0.53555 0.812 0.215 1244.601 0.02380
0.16306 0.06566 0.69371 0.71563 0.53744 0.998 0.232 1244.631 0.02382
0.16323 0.06573 0.69443 0.71638 0.53934 0.748 0.208 1244.661 0.02385
0.16340 0.06580 0.69516 0.71714 0.54123 0.811 0.215 1244.691 0.02387
