x y z dist_scaled dist_frac flux_norm sig_norm wavelength redshift
-0.14440 0.26917 0.39911 0.50258 0.00000 0.979 0.082 1236.115 0.01682
-0.14461 0.26957 0.39970 0.50333 0.00188 1.049 0.084 1236.145 0.01684
-0.14482 0.26996 0.40029 0.50407 0.00375 0.967 0.081 1236.175 0.01687
-0.14504 0.27036 0.40088 0.50481 0.00563 0.922 0.079 1236.205 0.01689
-0.14525 0.27076 0.40147 0.50556 0.00751 0.900 0.078 1236.235 0.01692
-0.14547 0.27116 0.40206 0.50630 0.00938 0.971 0.081 1236.265 0.01694
-0.14568 0.27156 0.40265 0.50705 0.01126 0.929 0.079 1236.295 0.01697
-0.14589 0.27196 0.40324 0.50779 0.01313 1.030 0.084 1236.325 0.01699
-0.14611 0.27235 0.40383 0.50853 0.01501 0.821 0.079 1236.355 0.01701
-0.14632 0.27275 0.40442 0.50928 0.01689 0.938 0.080 1236.384 0.01704
-0.14653 0.27315 0.40502 0.51002 0.01876 1.021 0.083 1236.414 0.01706
-0.14675 0.27355 0.40561 0.51077 0.02064 1.022 0.083 1236.444 0.01709
-0.14696 0.27395 0.40620 0.51151 0.02252 1.006 0.083 1236.474 0.01711
-0.14718 0.27435 0.40679 0.51225 0.02440 1.014 0.083 1236.504 0.01714
-0.14739 0.27475 0.40738 0.51300 0.02627 0.911 0.079 1236.534 0.01716
-0.14760 0.27514 0.40797 0.51374 0.02815 0.973 0.081 1236.564 0.01719
-0.14782 0.27554 0.40856 0.51449 0.03003 1.020 0.083 1236.594 0.01721
-0.14803 0.27594 0.40915 0.51523 0.03190 1.119 0.087 1236.623 0.01724
-0.14824 0.27634 0.40974 0.51597 0.03378 1.116 0.087 1236.653 0.01726
-0.14846 0.27674 0.41033 0.51672 0.03566 1.110 0.087 1236.683 0.01729
-0.14867 0.27714 0.41092 0.51746 0.03754 0.976 0.081 1236.713 0.01731
-0.14889 0.27754 0.41152 0.51821 0.03941 1.066 0.085 1236.743 0.01733
-0.14910 0.27793 0.41211 0.51895 0.04129 0.942 0.080 1236.773 0.01736
-0.14931 0.27833 0.41270 0.51970 0.04317 1.048 0.089 1236.803 0.01738
-0.14953 0.27873 0.41329 0.52044 0.04505 0.734 0.080 1236.833 0.01741
-0.14974 0.27913 0.41388 0.52118 0.04692 0.973 0.087 1236.862 0.01743
-0.14996 0.27953 0.41447 0.52193 0.04880 0.956 0.087 1236.892 0.01746
-0.15017 0.27993 0.41506 0.52267 0.05068 0.850 0.082 1236.922 0.01748
-0.15038 0.28033 0.41565 0.52342 0.05256 0.946 0.086 1236.952 0.01751
-0.15060 0.28072 0.41624 0.52416 0.05444 0.919 0.085 1236.982 0.01753
-0.15081 0.28112 0.41684 0.52491 0.05631 1.014 0.089 1237.012 0.01756
-0.15102 0.28152 0.41743 0.52565 0.05819 0.906 0.084 1237.042 0.01758
-0.15124 0.28192 0.41802 0.52640 0.06007 1.148 0.093 1237.072 0.01760
-0.15145 0.28232 0.41861 0.52714 0.06195 0.915 0.079 1237.101 0.01763
-0.15167 0.28272 0.41920 0.52788 0.06383 0.970 0.081 1237.131 0.01765
-0.15188 0.28312 0.41979 0.52863 0.06571 0.888 0.078 1237.161 0.01768
-0.15209 0.28352 0.42038 0.52937 0.06758 0.900 0.078 1237.191 0.01770
-0.15231 0.28392 0.42098 0.53012 0.06946 0.859 0.076 1237.221 0.01773
-0.15252 0.28431 0.42157 0.53086 0.07134 0.927 0.079 1237.251 0.01775
-0.15274 0.28471 0.42216 0.53161 0.07322 1.015 0.083 1237.281 0.01778
-0.15295 0.28511 0.42275 0.53235 0.07510 1.111 0.087 1237.311 0.01780
-0.15316 0.28551 0.42334 0.53310 0.07698 0.906 0.078 1237.341 0.01783
-0.15338 0.28591 0.42393 0.53384 0.07886 0.920 0.079 1237.370 0.01785
-0.15359 0.28631 0.42452 0.53459 0.08074 0.955 0.080 1237.400 0.01788
-0.15381 0.28671 0.42512 0.53533 0.08261 0.886 0.077 1237.430 0.01790
-0.15402 0.28711 0.42571 0.53608 0.08449 0.961 0.081 1237.460 0.01792
-0.15423 0.28751 0.42630 0.53682 0.08637 1.063 0.085 1237.490 0.01795
-0.15445 0.28790 0.42689 0.53757 0.08825 1.071 0.085 1237.520 0.01797
-0.15466 0.28830 0.42748 0.53831 0.09013 1.103 0.086 1237.550 0.01800
-0.15488 0.28870 0.42807 0.53906 0.09201 1.204 0.090 1237.580 0.01802
-0.15509 0.28910 0.42866 0.53980 0.09389 0.995 0.082 1237.609 0.01805
-0.15530 0.28950 0.42926 0.54055 0.09577 1.023 0.083 1237.639 0.01807
-0.15552 0.28990 0.42985 0.54129 0.09765 0.995 0.082 1237.669 0.01810
-0.15573 0.29030 0.43044 0.54204 0.09953 1.020 0.083 1237.699 0.01812
-0.15595 0.29070 0.43103 0.54278 0.10141 1.015 0.083 1237.729 0.01815
-0.15616 0.29110 0.43162 0.54353 0.10329 1.047 0.084 1237.759 0.01817
-0.15638 0.29150 0.43222 0.54427 0.10517 0.955 0.080 1237.789 0.01819
-0.15659 0.29190 0.43281 0.54502 0.10705 1.104 0.086 1237.819 0.01822
-0.15680 0.29229 0.43340 0.54576 0.10893 1.030 0.083 1237.848 0.01824
-0.15702 0.29269 0.43399 0.54651 0.11081 0.979 0.081 1237.878 0.01827
-0.15723 0.29309 0.43458 0.54725 0.11269 0.973 0.081 1237.908 0.01829
-0.15745 0.29349 0.43517 0.54800 0.11457 0.792 0.073 1237.938 0.01832
-0.15766 0.29389 0.43577 0.54874 0.11645 0.898 0.078 1237.968 0.01834
-0.15787 0.29429 0.43636 0.54949 0.11833 1.284 0.093 1237.998 0.01837
-0.15809 0.29469 0.43695 0.55024 0.12021 1.049 0.084 1238.028 0.01839
-0.15830 0.29509 0.43754 0.55098 0.12209 1.006 0.082 1238.058 0.01842
-0.15852 0.29549 0.43813 0.55173 0.12397 0.924 0.079 1238.087 0.01844
-0.15873 0.29589 0.43873 0.55247 0.12585 0.898 0.078 1238.117 0.01847
-0.15895 0.29629 0.43932 0.55322 0.12773 0.903 0.078 1238.147 0.01849
-0.15916 0.29669 0.43991 0.55396 0.12961 0.937 0.080 1238.177 0.01851
-0.15937 0.29709 0.44050 0.55471 0.13149 0.903 0.078 1238.207 0.01854
-0.15959 0.29748 0.44109 0.55545 0.13338 0.919 0.079 1238.237 0.01856
-0.15980 0.29788 0.44169 0.55620 0.13526 0.886 0.077 1238.267 0.01859
-0.16002 0.29828 0.44228 0.55695 0.13714 1.042 0.084 1238.297 0.01861
-0.16023 0.29868 0.44287 0.55769 0.13902 0.777 0.072 1238.327 0.01864
-0.16044 0.29908 0.44346 0.55844 0.14090 0.967 0.081 1238.356 0.01866
-0.16066 0.29948 0.44406 0.55918 0.14278 1.007 0.082 1238.386 0.01869
-0.16087 0.29988 0.44465 0.55993 0.14466 0.986 0.082 1238.416 0.01871
-0.16109 0.30028 0.44524 0.56067 0.14654 0.864 0.079 1238.446 0.01874
-0.16130 0.30068 0.44583 0.56142 0.14843 0.877 0.079 1238.476 0.01876
-0.16152 0.30108 0.44642 0.56217 0.15031 1.039 0.084 1238.506 0.01878
-0.16173 0.30148 0.44702 0.56291 0.15219 0.983 0.084 1238.536 0.01881
-0.16194 0.30188 0.44761 0.56366 0.15407 0.918 0.080 1238.566 0.01883
-0.16216 0.30228 0.44820 0.56440 0.15595 1.013 0.083 1238.595 0.01886
-0.16237 0.30268 0.44879 0.56515 0.15783 1.048 0.084 1238.625 0.01888
-0.16259 0.30308 0.44939 0.56590 0.15972 0.851 0.076 1238.655 0.01891
-0.16280 0.30348 0.44998 0.56664 0.16160 0.899 0.078 1238.685 0.01893
-0.16302 0.30388 0.45057 0.56739 0.16348 0.913 0.078 1238.715 0.01896
-0.16323 0.30428 0.45116 0.56813 0.16536 1.048 0.084 1238.745 0.01898
-0.16345 0.30467 0.45176 0.56888 0.16724 0.812 0.078 1238.775 0.01901
-0.16366 0.30507 0.45235 0.56963 0.16913 1.000 0.082 1238.805 0.01903
-0.16387 0.30547 0.45294 0.57037 0.17101 1.096 0.086 1238.834 0.01905
-0.16409 0.30587 0.45353 0.57112 0.17289 0.838 0.075 1238.864 0.01908
-0.16430 0.30627 0.45413 0.57186 0.17477 1.028 0.083 1238.894 0.01910
-0.16452 0.30667 0.45472 0.57261 0.17665 0.941 0.080 1238.924 0.01913
-0.16473 0.30707 0.45531 0.57336 0.17854 1.041 0.084 1238.954 0.01915
-0.16495 0.30747 0.45590 0.57410 0.18042 0.818 0.074 1238.984 0.01918
-0.16516 0.30787 0.45650 0.57485 0.18230 1.042 0.084 1239.014 0.01920
-0.16537 0.30827 0.45709 0.57560 0.18419 0.988 0.082 1239.044 0.01923
-0.16559 0.30867 0.45768 0.57634 0.18607 1.184 0.089 1239.073 0.01925
-0.16580 0.30907 0.45827 0.57709 0.18795 0.987 0.082 1239.103 0.01928
-0.16602 0.30947 0.45887 0.57784 0.18983 1.067 0.085 1239.133 0.01930
-0.16623 0.30987 0.45946 0.57858 0.19172 1.061 0.085 1239.163 0.01933
-0.16645 0.31027 0.46005 0.57933 0.19360 1.040 0.084 1239.193 0.01935
-0.16666 0.31067 0.46065 0.58007 0.19548 0.758 0.072 1239.223 0.01937
-0.16688 0.31107 0.46124 0.58082 0.19737 0.941 0.080 1239.253 0.01940
-0.16709 0.31147 0.46183 0.58157 0.19925 1.044 0.084 1239.283 0.01942
-0.16731 0.31187 0.46242 0.58231 0.20113 0.991 0.082 1239.313 0.01945
-0.16752 0.31227 0.46302 0.58306 0.20302 1.020 0.083 1239.342 0.01947
-0.16773 0.31267 0.46361 0.58381 0.20490 0.975 0.081 1239.372 0.01950
-0.16795 0.31307 0.46420 0.58455 0.20678 0.921 0.079 1239.402 0.01952
-0.16816 0.31347 0.46480 0.58530 0.20867 0.989 0.082 1239.432 0.01955
-0.16838 0.31387 0.46539 0.58605 0.21055 1.147 0.088 1239.462 0.01957
-0.16859 0.31427 0.46598 0.58679 0.21243 0.868 0.080 1239.492 0.01960
-0.16881 0.31467 0.46658 0.58754 0.21432 0.902 0.082 1239.522 0.01962
-0.16902 0.31507 0.46717 0.58829 0.21620 1.237 0.096 1239.552 0.01964
-0.16924 0.31547 0.46776 0.58904 0.21809 0.889 0.085 1239.581 0.01967
-0.16945 0.31587 0.46835 0.58978 0.21997 1.073 0.089 1239.611 0.01969
-0.16967 0.31627 0.46895 0.59053 0.22185 0.882 0.081 1239.641 0.01972
-0.16988 0.31667 0.46954 0.59128 0.22374 1.059 0.089 1239.671 0.01974
-0.17009 0.31707 0.47013 0.59202 0.22562 0.920 0.083 1239.701 0.01977
-0.17031 0.31747 0.47073 0.59277 0.22751 1.053 0.088 1239.731 0.01979
-0.17052 0.31787 0.47132 0.59352 0.22939 0.836 0.079 1239.761 0.01982
-0.17074 0.31827 0.47191 0.59426 0.23128 1.000 0.084 1239.791 0.01984
-0.17095 0.31867 0.47251 0.59501 0.23316 0.933 0.079 1239.820 0.01987
-0.17117 0.31907 0.47310 0.59576 0.23504 0.994 0.082 1239.850 0.01989
-0.17138 0.31947 0.47369 0.59650 0.23693 0.783 0.073 1239.880 0.01992
-0.17160 0.31987 0.47429 0.59725 0.23881 0.913 0.078 1239.910 0.01994
-0.17181 0.32027 0.47488 0.59800 0.24070 0.892 0.078 1239.940 0.01996
-0.17203 0.32067 0.47547 0.59875 0.24258 0.913 0.078 1239.970 0.01999
-0.17224 0.32107 0.47607 0.59949 0.24447 0.831 0.075 1240.000 0.02001
-0.17246 0.32147 0.47666 0.60024 0.24635 0.695 0.069 1240.030 0.02004
-0.17267 0.32187 0.47725 0.60099 0.24824 0.810 0.074 1240.059 0.02006
-0.17288 0.32227 0.47785 0.60174 0.25012 0.926 0.079 1240.089 0.02009
-0.17310 0.32267 0.47844 0.60248 0.25201 0.838 0.075 1240.119 0.02011
-0.17331 0.32307 0.47903 0.60323 0.25389 0.770 0.076 1240.149 0.02014
-0.17353 0.32347 0.47963 0.60398 0.25578 0.973 0.081 1240.179 0.02016
-0.17374 0.32387 0.48022 0.60472 0.25766 0.932 0.079 1240.209 0.02019
-0.17396 0.32427 0.48081 0.60547 0.25955 0.978 0.081 1240.239 0.02021
-0.17417 0.32467 0.48141 0.60622 0.26144 0.904 0.078 1240.269 0.02023
-0.17439 0.32507 0.48200 0.60697 0.26332 0.938 0.080 1240.299 0.02026
-0.17460 0.32547 0.48259 0.60771 0.26521 0.927 0.079 1240.328 0.02028
-0.17482 0.32587 0.48319 0.60846 0.26709 0.959 0.080 1240.358 0.02031
-0.17503 0.32627 0.48378 0.60921 0.26898 0.729 0.070 1240.388 0.02033
-0.17525 0.32667 0.48438 0.60996 0.27086 0.912 0.078 1240.418 0.02036
-0.17546 0.32707 0.48497 0.61070 0.27275 0.893 0.078 1240.448 0.02038
-0.17568 0.32748 0.48556 0.61145 0.27464 0.930 0.079 1240.478 0.02041
-0.17589 0.32788 0.48616 0.61220 0.27652 0.926 0.079 1240.508 0.02043
-0.17611 0.32828 0.48675 0.61295 0.27841 0.967 0.081 1240.538 0.02046
-0.17632 0.32868 0.48734 0.61370 0.28029 1.052 0.084 1240.567 0.02048
-0.17654 0.32908 0.48794 0.61444 0.28218 1.014 0.083 1240.597 0.02050
-0.17675 0.32948 0.48853 0.61519 0.28407 1.010 0.083 1240.627 0.02053
-0.17697 0.32988 0.48913 0.61594 0.28595 0.971 0.081 1240.657 0.02055
-0.17718 0.33028 0.48972 0.61669 0.28784 0.988 0.082 1240.687 0.02058
-0.17740 0.33068 0.49031 0.61743 0.28973 1.075 0.085 1240.717 0.02060
-0.17761 0.33108 0.49091 0.61818 0.29161 1.126 0.087 1240.747 0.02063
-0.17783 0.33148 0.49150 0.61893 0.29350 0.973 0.081 1240.777 0.02065
-0.17804 0.33188 0.49210 0.61968 0.29539 1.047 0.084 1240.806 0.02068
-0.17825 0.33228 0.49269 0.62043 0.29727 0.909 0.078 1240.836 0.02070
-0.17847 0.33268 0.49328 0.62117 0.29916 1.040 0.084 1240.866 0.02073
-0.17868 0.33308 0.49388 0.62192 0.30105 1.006 0.082 1240.896 0.02075
-0.17890 0.33348 0.49447 0.62267 0.30293 1.211 0.090 1240.926 0.02078
-0.17911 0.33388 0.49507 0.62342 0.30482 0.942 0.080 1240.956 0.02080
-0.17933 0.33428 0.49566 0.62417 0.30671 1.037 0.084 1240.986 0.02082
-0.17954 0.33468 0.49625 0.62491 0.30859 0.922 0.079 1241.016 0.02085
-0.17976 0.33509 0.49685 0.62566 0.31048 0.978 0.081 1241.045 0.02087
-0.17997 0.33549 0.49744 0.62641 0.31237 1.038 0.084 1241.075 0.02090
-0.18019 0.33589 0.49804 0.62716 0.31426 0.977 0.081 1241.105 0.02092
-0.18040 0.33629 0.49863 0.62791 0.31614 0.905 0.078 1241.135 0.02095
-0.18062 0.33669 0.49922 0.62866 0.31803 0.992 0.082 1241.165 0.02097
-0.18083 0.33709 0.49982 0.62940 0.31992 1.058 0.085 1241.195 0.02100
-0.18105 0.33749 0.50041 0.63015 0.32181 0.911 0.078 1241.225 0.02102
-0.18126 0.33789 0.50101 0.63090 0.32369 0.939 0.080 1241.255 0.02105
-0.18148 0.33829 0.50160 0.63165 0.32558 1.068 0.085 1241.285 0.02107
-0.18169 0.33869 0.50220 0.63240 0.32747 1.013 0.083 1241.314 0.02109
-0.18191 0.33909 0.50279 0.63315 0.32936 1.020 0.083 1241.344 0.02112
-0.18212 0.33949 0.50338 0.63389 0.33125 1.114 0.087 1241.374 0.02114
-0.18234 0.33989 0.50398 0.63464 0.33313 0.863 0.076 1241.404 0.02117
-0.18255 0.34030 0.50457 0.63539 0.33502 1.000 0.082 1241.434 0.02119
-0.18277 0.34070 0.50517 0.63614 0.33691 1.055 0.084 1241.464 0.02122
-0.18298 0.34110 0.50576 0.63689 0.33880 1.136 0.088 1241.494 0.02124
-0.18320 0.34150 0.50636 0.63764 0.34069 0.980 0.081 1241.524 0.02127
-0.18341 0.34190 0.50695 0.63838 0.34258 1.101 0.086 1241.553 0.02129
-0.18363 0.34230 0.50755 0.63913 0.34446 0.998 0.082 1241.583 0.02132
-0.18384 0.34270 0.50814 0.63988 0.34635 0.945 0.080 1241.613 0.02134
-0.18406 0.34310 0.50873 0.64063 0.34824 1.023 0.083 1241.643 0.02137
-0.18427 0.34350 0.50933 0.64138 0.35013 1.127 0.087 1241.673 0.02139
-0.18449 0.34390 0.50992 0.64213 0.35202 0.972 0.081 1241.703 0.02141
-0.18471 0.34431 0.51052 0.64288 0.35391 1.027 0.083 1241.733 0.02144
-0.18492 0.34471 0.51111 0.64363 0.35580 0.983 0.082 1241.763 0.02146
-0.18514 0.34511 0.51171 0.64437 0.35769 0.994 0.082 1241.792 0.02149
-0.18535 0.34551 0.51230 0.64512 0.35957 1.072 0.085 1241.822 0.02151
-0.18557 0.34591 0.51290 0.64587 0.36146 1.040 0.084 1241.852 0.02154
-0.18578 0.34631 0.51349 0.64662 0.36335 0.993 0.082 1241.882 0.02156
-0.18600 0.34671 0.51409 0.64737 0.36524 1.107 0.087 1241.912 0.02159
-0.18621 0.34711 0.51468 0.64812 0.36713 0.799 0.074 1241.942 0.02161
-0.18643 0.34751 0.51528 0.64887 0.36902 0.936 0.080 1241.972 0.02164
-0.18664 0.34791 0.51587 0.64962 0.37091 0.971 0.081 1242.002 0.02166
-0.18686 0.34832 0.51646 0.65037 0.37280 1.053 0.084 1242.031 0.02168
-0.18707 0.34872 0.51706 0.65111 0.37469 0.816 0.074 1242.061 0.02171
-0.18729 0.34912 0.51765 0.65186 0.37658 0.810 0.074 1242.091 0.02173
-0.18750 0.34952 0.51825 0.65261 0.37847 0.625 0.069 1242.121 0.02176
-0.18772 0.34992 0.51884 0.65336 0.38036 0.529 0.072 1242.151 0.02178
-0.18793 0.35032 0.51944 0.65411 0.38225 0.631 0.070 1242.181 0.02181
-0.18815 0.35072 0.52003 0.65486 0.38414 0.618 0.069 1242.211 0.02183
-0.18836 0.35112 0.52063 0.65561 0.38603 0.800 0.074 1242.241 0.02186
-0.18858 0.35153 0.52122 0.65636 0.38792 0.911 0.079 1242.271 0.02188
-0.18879 0.35193 0.52182 0.65711 0.38981 0.937 0.080 1242.300 0.02191
-0.18901 0.35233 0.52241 0.65786 0.39170 0.828 0.078 1242.330 0.02193
-0.18922 0.35273 0.52301 0.65861 0.39359 0.827 0.075 1242.360 0.02196
-0.18944 0.35313 0.52360 0.65936 0.39548 1.073 0.085 1242.390 0.02198
-0.18966 0.35353 0.52420 0.66011 0.39737 0.876 0.077 1242.420 0.02200
-0.18987 0.35393 0.52479 0.66085 0.39926 0.848 0.076 1242.450 0.02203
-0.19009 0.35433 0.52539 0.66160 0.40115 0.984 0.082 1242.480 0.02205
-0.19030 0.35474 0.52598 0.66235 0.40304 0.827 0.075 1242.510 0.02208
-0.19052 0.35514 0.52658 0.66310 0.40493 1.046 0.084 1242.539 0.02210
-0.19073 0.35554 0.52718 0.66385 0.40682 0.894 0.078 1242.569 0.02213
-0.19095 0.35594 0.52777 0.66460 0.40871 0.964 0.081 1242.599 0.02215
-0.19116 0.35634 0.52837 0.66535 0.41060 0.999 0.082 1242.629 0.02218
-0.19138 0.35674 0.52896 0.66610 0.41249 0.991 0.082 1242.659 0.02220
-0.19159 0.35714 0.52956 0.66685 0.41438 0.869 0.077 1242.689 0.02223
-0.19181 0.35755 0.53015 0.66760 0.41628 0.843 0.076 1242.719 0.02225
-0.19202 0.35795 0.53075 0.66835 0.41817 0.951 0.080 1242.749 0.02227
-0.19224 0.35835 0.53134 0.66910 0.42006 1.176 0.089 1242.778 0.02230
-0.19245 0.35875 0.53194 0.66985 0.42195 1.019 0.083 1242.808 0.02232
-0.19267 0.35915 0.53253 0.67060 0.42384 0.795 0.073 1242.838 0.02235
-0.19289 0.35955 0.53313 0.67135 0.42573 0.905 0.078 1242.868 0.02237
-0.19310 0.35996 0.53372 0.67210 0.42762 0.986 0.082 1242.898 0.02240
-0.19332 0.36036 0.53432 0.67285 0.42951 0.999 0.082 1242.928 0.02242
-0.19353 0.36076 0.53491 0.67360 0.43141 0.966 0.081 1242.958 0.02245
-0.19375 0.36116 0.53551 0.67435 0.43330 0.802 0.074 1242.988 0.02247
-0.19396 0.36156 0.53611 0.67510 0.43519 0.523 0.068 1243.017 0.02250
-0.19418 0.36196 0.53670 0.67585 0.43708 0.428 0.067 1243.047 0.02252
-0.19439 0.36237 0.53730 0.67660 0.43897 0.543 0.064 1243.077 0.02254
-0.19461 0.36277 0.53789 0.67735 0.44087 0.659 0.071 1243.107 0.02257
-0.19482 0.36317 0.53849 0.67810 0.44276 0.449 0.068 1243.137 0.02259
-0.19504 0.36357 0.53908 0.67885 0.44465 0.394 0.064 1243.167 0.02262
-0.19526 0.36397 0.53968 0.67960 0.44654 0.224 0.052 1243.197 0.02264
-0.19547 0.36437 0.54027 0.68035 0.44843 0.197 0.049 1243.227 0.02267
-0.19569 0.36478 0.54087 0.68110 0.45033 0.122 0.042 1243.257 0.02269
-0.19590 0.36518 0.54147 0.68185 0.45222 0.136 0.044 1243.286 0.02272
-0.19612 0.36558 0.54206 0.68260 0.45411 0.218 0.051 1243.316 0.02274
-0.19633 0.36598 0.54266 0.68335 0.45600 0.369 0.063 1243.346 0.02277
-0.19655 0.36638 0.54325 0.68410 0.45790 0.478 0.065 1243.376 0.02279
-0.19676 0.36678 0.54385 0.68485 0.45979 0.567 0.070 1243.406 0.02282
-0.19698 0.36719 0.54444 0.68560 0.46168 0.649 0.070 1243.436 0.02284
-0.19720 0.36759 0.54504 0.68635 0.46357 0.827 0.075 1243.466 0.02286
-0.19741 0.36799 0.54564 0.68710 0.46547 0.657 0.075 1243.496 0.02289
-0.19763 0.36839 0.54623 0.68785 0.46736 0.499 0.066 1243.525 0.02291
-0.19784 0.36879 0.54683 0.68860 0.46925 0.329 0.060 1243.555 0.02294
-0.19806 0.36920 0.54742 0.68935 0.47114 0.166 0.046 1243.585 0.02296
-0.19827 0.36960 0.54802 0.69010 0.47304 0.233 0.053 1243.615 0.02299
-0.19849 0.37000 0.54862 0.69085 0.47493 0.194 0.049 1243.645 0.02301
-0.19870 0.37040 0.54921 0.69160 0.47682 0.281 0.056 1243.675 0.02304
-0.19892 0.37080 0.54981 0.69235 0.47872 0.392 0.064 1243.705 0.02306
-0.19914 0.37121 0.55040 0.69310 0.48061 0.521 0.068 1243.735 0.02309
-0.19935 0.37161 0.55100 0.69385 0.48250 0.897 0.078 1243.764 0.02311
-0.19957 0.37201 0.55160 0.69461 0.48440 0.842 0.076 1243.794 0.02313
-0.19978 0.37241 0.55219 0.69536 0.48629 0.822 0.075 1243.824 0.02316
-0.20000 0.37281 0.55279 0.69611 0.48818 1.007 0.083 1243.854 0.02318
-0.20021 0.37322 0.55338 0.69686 0.49008 0.911 0.079 1243.884 0.02321
-0.20043 0.37362 0.55398 0.69761 0.49197 0.989 0.082 1243.914 0.02323
-0.20065 0.37402 0.55458 0.69836 0.49387 1.050 0.085 1243.944 0.02326
-0.20086 0.37442 0.55517 0.69911 0.49576 0.968 0.081 1243.974 0.02328
-0.20108 0.37482 0.55577 0.69986 0.49765 0.963 0.081 1244.003 0.02331
-0.20129 0.37523 0.55637 0.70061 0.49955 1.072 0.086 1244.033 0.02333
-0.20151 0.37563 0.55696 0.70136 0.50144 1.084 0.086 1244.063 0.02336
-0.20172 0.37603 0.55756 0.70211 0.50334 1.071 0.085 1244.093 0.02338
-0.20194 0.37643 0.55815 0.70286 0.50523 0.931 0.080 1244.123 0.02341
-0.20216 0.37683 0.55875 0.70361 0.50712 1.001 0.083 1244.153 0.02343
-0.20237 0.37724 0.55935 0.70437 0.50902 1.040 0.084 1244.183 0.02345
-0.20259 0.37764 0.55994 0.70512 0.51091 1.078 0.086 1244.213 0.02348
-0.20280 0.37804 0.56054 0.70587 0.51281 1.034 0.084 1244.243 0.02350
-0.20302 0.37844 0.56114 0.70662 0.51470 0.867 0.077 1244.272 0.02353
-0.20323 0.37885 0.56173 0.70737 0.51660 1.093 0.086 1244.302 0.02355
-0.20345 0.37925 0.56233 0.70812 0.51849 0.970 0.081 1244.332 0.02358
-0.20367 0.37965 0.56293 0.70887 0.52039 1.095 0.087 1244.362 0.02360
-0.20388 0.38005 0.56352 0.70962 0.52228 1.291 0.094 1244.392 0.02363
-0.20410 0.38045 0.56412 0.71037 0.52418 0.980 0.082 1244.422 0.02365
-0.20431 0.38086 0.56471 0.71112 0.52607 1.040 0.084 1244.452 0.02368
-0.20453 0.38126 0.56531 0.71188 0.52797 1.104 0.087 1244.482 0.02370
-0.20475 0.38166 0.56591 0.71263 0.52986 1.061 0.085 1244.511 0.02372
-0.20496 0.38206 0.56650 0.71338 0.53176 0.965 0.081 1244.541 0.02375
-0.20518 0.38247 0.56710 0.71413 0.53365 1.024 0.084 1244.571 0.02377
