x y z dist_scaled dist_frac flux_norm sig_norm wavelength redshift
-0.20206 -0.15262 0.43413 0.50258 0.00000 1.095 0.106 1236.115 0.01682
-0.20236 -0.15284 0.43477 0.50333 0.00188 0.726 0.106 1236.145 0.01684
-0.20266 -0.15307 0.43542 0.50407 0.00375 0.861 0.114 1236.175 0.01687
-0.20296 -0.15329 0.43606 0.50481 0.00563 0.780 0.109 1236.205 0.01689
-0.20326 -0.15352 0.43670 0.50556 0.00751 0.843 0.113 1236.235 0.01692
-0.20355 -0.15375 0.43734 0.50630 0.00938 1.063 0.105 1236.265 0.01694
-0.20385 -0.15397 0.43799 0.50705 0.01126 0.867 0.115 1236.295 0.01697
-0.20415 -0.15420 0.43863 0.50779 0.01313 1.088 0.113 1236.325 0.01699
-0.20445 -0.15442 0.43927 0.50853 0.01501 0.767 0.102 1236.355 0.01701
-0.20475 -0.15465 0.43991 0.50928 0.01689 1.030 0.104 1236.384 0.01704
-0.20505 -0.15487 0.44056 0.51002 0.01876 1.179 0.111 1236.414 0.01706
-0.20535 -0.15510 0.44120 0.51077 0.02064 0.991 0.108 1236.444 0.01709
-0.20565 -0.15533 0.44184 0.51151 0.02252 1.098 0.108 1236.474 0.01711
-0.20595 -0.15555 0.44248 0.51225 0.02440 1.068 0.113 1236.504 0.01714
-0.20625 -0.15578 0.44313 0.51300 0.02627 0.944 0.106 1236.534 0.01716
-0.20655 -0.15600 0.44377 0.51374 0.02815 1.020 0.111 1236.564 0.01719
-0.20685 -0.15623 0.44441 0.51449 0.03003 1.000 0.110 1236.594 0.01721
-0.20714 -0.15646 0.44506 0.51523 0.03190 0.757 0.110 1236.623 0.01724
-0.20744 -0.15668 0.44570 0.51597 0.03378 0.929 0.113 1236.653 0.01726
-0.20774 -0.15691 0.44634 0.51672 0.03566 0.941 0.113 1236.683 0.01729
-0.20804 -0.15713 0.44698 0.51746 0.03754 0.921 0.113 1236.713 0.01731
-0.20834 -0.15736 0.44763 0.51821 0.03941 0.955 0.114 1236.743 0.01733
-0.20864 -0.15759 0.44827 0.51895 0.04129 1.151 0.118 1236.773 0.01736
-0.20894 -0.15781 0.44891 0.51970 0.04317 0.968 0.108 1236.803 0.01738
-0.20924 -0.15804 0.44956 0.52044 0.04505 0.885 0.111 1236.833 0.01741
-0.20954 -0.15826 0.45020 0.52118 0.04692 1.058 0.113 1236.862 0.01743
-0.20984 -0.15849 0.45084 0.52193 0.04880 1.039 0.112 1236.892 0.01746
-0.21014 -0.15872 0.45148 0.52267 0.05068 1.127 0.117 1236.922 0.01748
-0.21044 -0.15894 0.45213 0.52342 0.05256 1.000 0.117 1236.952 0.01751
-0.21074 -0.15917 0.45277 0.52416 0.05444 0.849 0.116 1236.982 0.01753
-0.21103 -0.15940 0.45341 0.52491 0.05631 0.819 0.115 1237.012 0.01756
-0.21133 -0.15962 0.45406 0.52565 0.05819 0.776 0.112 1237.042 0.01758
-0.21163 -0.15985 0.45470 0.52640 0.06007 0.942 0.115 1237.072 0.01760
-0.21193 -0.16007 0.45534 0.52714 0.06195 1.030 0.113 1237.101 0.01763
-0.21223 -0.16030 0.45599 0.52788 0.06383 0.889 0.112 1237.131 0.01765
-0.21253 -0.16053 0.45663 0.52863 0.06571 0.957 0.116 1237.161 0.01768
-0.21283 -0.16075 0.45727 0.52937 0.06758 1.024 0.113 1237.191 0.01770
-0.21313 -0.16098 0.45792 0.53012 0.06946 0.861 0.118 1237.221 0.01773
-0.21343 -0.16120 0.45856 0.53086 0.07134 0.918 0.114 1237.251 0.01775
-0.21373 -0.16143 0.45920 0.53161 0.07322 0.974 0.110 1237.281 0.01778
-0.21403 -0.16166 0.45985 0.53235 0.07510 1.007 0.112 1237.311 0.01780
-0.21433 -0.16188 0.46049 0.53310 0.07698 0.898 0.120 1237.341 0.01783
-0.21463 -0.16211 0.46113 0.53384 0.07886 0.909 0.114 1237.370 0.01785
-0.21493 -0.16233 0.46178 0.53459 0.08074 0.979 0.118 1237.400 0.01788
-0.21523 -0.16256 0.46242 0.53533 0.08261 0.792 0.107 1237.430 0.01790
-0.21553 -0.16279 0.46306 0.53608 0.08449 0.915 0.115 1237.460 0.01792
-0.21583 -0.16301 0.46371 0.53682 0.08637 1.017 0.119 1237.490 0.01795
-0.21612 -0.16324 0.46435 0.53757 0.08825 1.075 0.123 1237.520 0.01797
-0.21642 -0.16347 0.46499 0.53831 0.09013 0.877 0.120 1237.550 0.01800
-0.21672 -0.16369 0.46564 0.53906 0.09201 0.899 0.114 1237.580 0.01802
-0.21702 -0.16392 0.46628 0.53980 0.09389 1.045 0.115 1237.609 0.01805
-0.21732 -0.16414 0.46692 0.54055 0.09577 1.036 0.121 1237.639 0.01807
-0.21762 -0.16437 0.46757 0.54129 0.09765 0.722 0.111 1237.669 0.01810
-0.21792 -0.16460 0.46821 0.54204 0.09953 1.039 0.115 1237.699 0.01812
-0.21822 -0.16482 0.46886 0.54278 0.10141 0.645 0.107 1237.729 0.01815
-0.21852 -0.16505 0.46950 0.54353 0.10329 0.567 0.101 1237.759 0.01817
-0.21882 -0.16528 0.47014 0.54427 0.10517 0.444 0.092 1237.789 0.01819
-0.21912 -0.16550 0.47079 0.54502 0.10705 0.445 0.093 1237.819 0.01822
-0.21942 -0.16573 0.47143 0.54576 0.10893 0.389 0.088 1237.848 0.01824
-0.21972 -0.16596 0.47207 0.54651 0.11081 0.311 0.081 1237.878 0.01827
-0.22002 -0.16618 0.47272 0.54725 0.11269 0.141 0.064 1237.908 0.01829
-0.22032 -0.16641 0.47336 0.54800 0.11457 0.345 0.084 1237.938 0.01832
-0.22062 -0.16663 0.47401 0.54874 0.11645 0.494 0.096 1237.968 0.01834
-0.22092 -0.16686 0.47465 0.54949 0.11833 0.596 0.104 1237.998 0.01837
-0.22122 -0.16709 0.47529 0.55024 0.12021 0.734 0.113 1238.028 0.01839
-0.22152 -0.16731 0.47594 0.55098 0.12209 0.679 0.110 1238.058 0.01842
-0.22182 -0.16754 0.47658 0.55173 0.12397 1.010 0.121 1238.087 0.01844
-0.22212 -0.16777 0.47723 0.55247 0.12585 0.931 0.117 1238.117 0.01847
-0.22242 -0.16799 0.47787 0.55322 0.12773 0.806 0.118 1238.147 0.01849
-0.22272 -0.16822 0.47851 0.55396 0.12961 1.036 0.116 1238.177 0.01851
-0.22302 -0.16845 0.47916 0.55471 0.13149 0.901 0.116 1238.207 0.01854
-0.22332 -0.16867 0.47980 0.55545 0.13338 1.028 0.123 1238.237 0.01856
-0.22362 -0.16890 0.48045 0.55620 0.13526 0.950 0.126 1238.267 0.01859
-0.22392 -0.16912 0.48109 0.55695 0.13714 0.775 0.116 1238.297 0.01861
-0.22422 -0.16935 0.48173 0.55769 0.13902 1.020 0.123 1238.327 0.01864
-0.22452 -0.16958 0.48238 0.55844 0.14090 0.952 0.119 1238.356 0.01866
-0.22482 -0.16980 0.48302 0.55918 0.14278 1.206 0.118 1238.386 0.01869
-0.22512 -0.17003 0.48367 0.55993 0.14466 1.161 0.123 1238.416 0.01871
-0.22542 -0.17026 0.48431 0.56067 0.14654 0.953 0.127 1238.446 0.01874
-0.22571 -0.17048 0.48495 0.56142 0.14843 1.013 0.123 1238.476 0.01876
-0.22601 -0.17071 0.48560 0.56217 0.15031 0.863 0.122 1238.506 0.01878
-0.22631 -0.17094 0.48624 0.56291 0.15219 0.900 0.116 1238.536 0.01881
-0.22661 -0.17116 0.48689 0.56366 0.15407 0.994 0.122 1238.566 0.01883
-0.22691 -0.17139 0.48753 0.56440 0.15595 0.748 0.107 1238.595 0.01886
-0.22721 -0.17162 0.48818 0.56515 0.15783 0.948 0.127 1238.625 0.01888
-0.22751 -0.17184 0.48882 0.56590 0.15972 0.879 0.123 1238.655 0.01891
-0.22781 -0.17207 0.48947 0.56664 0.16160 0.975 0.121 1238.685 0.01893
-0.22811 -0.17230 0.49011 0.56739 0.16348 0.987 0.122 1238.715 0.01896
-0.22841 -0.17252 0.49075 0.56813 0.16536 0.965 0.128 1238.745 0.01898
-0.22871 -0.17275 0.49140 0.56888 0.16724 0.884 0.124 1238.775 0.01901
-0.22901 -0.17297 0.49204 0.56963 0.16913 0.931 0.119 1238.805 0.01903
-0.22931 -0.17320 0.49269 0.57037 0.17101 0.908 0.118 1238.834 0.01905
-0.22961 -0.17343 0.49333 0.57112 0.17289 1.074 0.126 1238.864 0.01908
-0.22991 -0.17365 0.49398 0.57186 0.17477 0.945 0.127 1238.894 0.01910
-0.23021 -0.17388 0.49462 0.57261 0.17665 0.805 0.120 1238.924 0.01913
-0.23051 -0.17411 0.49527 0.57336 0.17854 1.005 0.131 1238.954 0.01915
-0.23081 -0.17433 0.49591 0.57410 0.18042 1.114 0.129 1238.984 0.01918
-0.23111 -0.17456 0.49656 0.57485 0.18230 0.772 0.118 1239.014 0.01920
-0.23141 -0.17479 0.49720 0.57560 0.18419 0.924 0.127 1239.044 0.01923
-0.23171 -0.17501 0.49784 0.57634 0.18607 1.243 0.121 1239.073 0.01925
-0.23201 -0.17524 0.49849 0.57709 0.18795 1.102 0.114 1239.103 0.01928
-0.23231 -0.17547 0.49913 0.57784 0.18983 1.090 0.121 1239.133 0.01930
-0.23261 -0.17569 0.49978 0.57858 0.19172 1.073 0.127 1239.163 0.01933
-0.23291 -0.17592 0.50042 0.57933 0.19360 0.874 0.124 1239.193 0.01935
-0.23321 -0.17615 0.50107 0.58007 0.19548 1.122 0.129 1239.223 0.01937
-0.23351 -0.17637 0.50171 0.58082 0.19737 1.017 0.125 1239.253 0.01940
-0.23382 -0.17660 0.50236 0.58157 0.19925 1.085 0.128 1239.283 0.01942
-0.23412 -0.17683 0.50300 0.58231 0.20113 0.997 0.123 1239.313 0.01945
-0.23442 -0.17705 0.50365 0.58306 0.20302 1.025 0.125 1239.342 0.01947
-0.23472 -0.17728 0.50429 0.58381 0.20490 1.006 0.131 1239.372 0.01950
-0.23502 -0.17751 0.50494 0.58455 0.20678 0.898 0.126 1239.402 0.01952
-0.23532 -0.17773 0.50558 0.58530 0.20867 1.025 0.118 1239.432 0.01955
-0.23562 -0.17796 0.50623 0.58605 0.21055 1.086 0.128 1239.462 0.01957
-0.23592 -0.17819 0.50687 0.58679 0.21243 0.973 0.115 1239.492 0.01960
-0.23622 -0.17842 0.50752 0.58754 0.21432 1.002 0.124 1239.522 0.01962
-0.23652 -0.17864 0.50816 0.58829 0.21620 1.023 0.133 1239.552 0.01964
-0.23682 -0.17887 0.50881 0.58904 0.21809 1.130 0.124 1239.581 0.01967
-0.23712 -0.17910 0.50945 0.58978 0.21997 1.011 0.125 1239.611 0.01969
-0.23742 -0.17932 0.51010 0.59053 0.22185 1.036 0.126 1239.641 0.01972
-0.23772 -0.17955 0.51074 0.59128 0.22374 0.903 0.127 1239.671 0.01974
-0.23802 -0.17978 0.51139 0.59202 0.22562 0.833 0.123 1239.701 0.01977
-0.23832 -0.18000 0.51203 0.59277 0.22751 0.967 0.130 1239.731 0.01979
-0.23862 -0.18023 0.51268 0.59352 0.22939 0.918 0.128 1239.761 0.01982
-0.23892 -0.18046 0.51332 0.59426 0.23128 0.893 0.127 1239.791 0.01984
-0.23922 -0.18068 0.51397 0.59501 0.23316 0.859 0.125 1239.820 0.01987
-0.23952 -0.18091 0.51462 0.59576 0.23504 0.920 0.128 1239.850 0.01989
-0.23982 -0.18114 0.51526 0.59650 0.23693 0.739 0.117 1239.880 0.01992
-0.24012 -0.18136 0.51591 0.59725 0.23881 0.947 0.121 1239.910 0.01994
-0.24042 -0.18159 0.51655 0.59800 0.24070 1.031 0.127 1239.940 0.01996
-0.24072 -0.18182 0.51720 0.59875 0.24258 1.130 0.125 1239.970 0.01999
-0.24102 -0.18204 0.51784 0.59949 0.24447 0.851 0.124 1240.000 0.02001
-0.24132 -0.18227 0.51849 0.60024 0.24635 1.032 0.127 1240.030 0.02004
-0.24162 -0.18250 0.51913 0.60099 0.24824 0.961 0.131 1240.059 0.02006
-0.24192 -0.18273 0.51978 0.60174 0.25012 1.083 0.130 1240.089 0.02009
-0.24222 -0.18295 0.52042 0.60248 0.25201 1.010 0.126 1240.119 0.02011
-0.24252 -0.18318 0.52107 0.60323 0.25389 1.072 0.121 1240.149 0.02014
-0.24282 -0.18341 0.52172 0.60398 0.25578 1.156 0.126 1240.179 0.02016
-0.24312 -0.18363 0.52236 0.60472 0.25766 0.940 0.130 1240.209 0.02019
-0.24343 -0.18386 0.52301 0.60547 0.25955 1.282 0.125 1240.239 0.02021
-0.24373 -0.18409 0.52365 0.60622 0.26144 0.831 0.124 1240.269 0.02023
-0.24403 -0.18431 0.52430 0.60697 0.26332 0.966 0.124 1240.299 0.02026
-0.24433 -0.18454 0.52494 0.60771 0.26521 1.040 0.128 1240.328 0.02028
-0.24463 -0.18477 0.52559 0.60846 0.26709 0.808 0.122 1240.358 0.02031
-0.24493 -0.18499 0.52623 0.60921 0.26898 1.029 0.127 1240.388 0.02033
-0.24523 -0.18522 0.52688 0.60996 0.27086 0.956 0.131 1240.418 0.02036
-0.24553 -0.18545 0.52753 0.61070 0.27275 0.931 0.129 1240.448 0.02038
-0.24583 -0.18568 0.52817 0.61145 0.27464 1.017 0.162 1240.478 0.02041
-0.24613 -0.18590 0.52882 0.61220 0.27652 0.871 0.126 1240.508 0.02043
-0.24643 -0.18613 0.52946 0.61295 0.27841 1.044 0.128 1240.538 0.02046
-0.24673 -0.18636 0.53011 0.61370 0.28029 1.032 0.127 1240.567 0.02048
-0.24703 -0.18658 0.53076 0.61444 0.28218 0.972 0.132 1240.597 0.02050
-0.24733 -0.18681 0.53140 0.61519 0.28407 1.058 0.129 1240.627 0.02053
-0.24763 -0.18704 0.53205 0.61594 0.28595 1.010 0.134 1240.657 0.02055
-0.24793 -0.18727 0.53269 0.61669 0.28784 0.874 0.118 1240.687 0.02058
-0.24823 -0.18749 0.53334 0.61743 0.28973 0.851 0.125 1240.717 0.02060
-0.24854 -0.18772 0.53399 0.61818 0.29161 1.099 0.131 1240.747 0.02063
-0.24884 -0.18795 0.53463 0.61893 0.29350 0.864 0.126 1240.777 0.02065
-0.24914 -0.18817 0.53528 0.61968 0.29539 0.914 0.121 1240.806 0.02068
-0.24944 -0.18840 0.53592 0.62043 0.29727 1.112 0.124 1240.836 0.02070
-0.24974 -0.18863 0.53657 0.62117 0.29916 1.087 0.131 1240.866 0.02073
-0.25004 -0.18886 0.53722 0.62192 0.30105 1.064 0.129 1240.896 0.02075
-0.25034 -0.18908 0.53786 0.62267 0.30293 0.928 0.122 1240.926 0.02078
-0.25064 -0.18931 0.53851 0.62342 0.30482 1.285 0.126 1240.956 0.02080
-0.25094 -0.18954 0.53915 0.62417 0.30671 0.978 0.132 1240.986 0.02082
-0.25124 -0.18976 0.53980 0.62491 0.30859 1.014 0.127 1241.016 0.02085
-0.25154 -0.18999 0.54045 0.62566 0.31048 0.881 0.127 1241.045 0.02087
-0.25184 -0.19022 0.54109 0.62641 0.31237 0.892 0.128 1241.075 0.02090
-0.25214 -0.19045 0.54174 0.62716 0.31426 0.981 0.125 1241.105 0.02092
-0.25245 -0.19067 0.54239 0.62791 0.31614 0.770 0.120 1241.135 0.02095
-0.25275 -0.19090 0.54303 0.62866 0.31803 0.891 0.128 1241.165 0.02097
-0.25305 -0.19113 0.54368 0.62940 0.31992 0.991 0.126 1241.195 0.02100
-0.25335 -0.19135 0.54432 0.63015 0.32181 1.127 0.132 1241.225 0.02102
-0.25365 -0.19158 0.54497 0.63090 0.32369 1.017 0.127 1241.255 0.02105
-0.25395 -0.19181 0.54562 0.63165 0.32558 1.115 0.132 1241.285 0.02107
-0.25425 -0.19204 0.54626 0.63240 0.32747 1.179 0.128 1241.314 0.02109
-0.25455 -0.19226 0.54691 0.63315 0.32936 1.029 0.128 1241.344 0.02112
-0.25485 -0.19249 0.54756 0.63389 0.33125 0.907 0.129 1241.374 0.02114
-0.25515 -0.19272 0.54820 0.63464 0.33313 1.067 0.130 1241.404 0.02117
-0.25545 -0.19295 0.54885 0.63539 0.33502 1.043 0.129 1241.434 0.02119
-0.25575 -0.19317 0.54950 0.63614 0.33691 1.055 0.137 1241.464 0.02122
-0.25606 -0.19340 0.55014 0.63689 0.33880 1.044 0.129 1241.494 0.02124
-0.25636 -0.19363 0.55079 0.63764 0.34069 1.006 0.126 1241.524 0.02127
-0.25666 -0.19385 0.55144 0.63838 0.34258 1.080 0.130 1241.553 0.02129
-0.25696 -0.19408 0.55208 0.63913 0.34446 1.014 0.127 1241.583 0.02132
-0.25726 -0.19431 0.55273 0.63988 0.34635 0.986 0.133 1241.613 0.02134
-0.25756 -0.19454 0.55338 0.64063 0.34824 1.130 0.126 1241.643 0.02137
-0.25786 -0.19476 0.55402 0.64138 0.35013 0.990 0.125 1241.673 0.02139
-0.25816 -0.19499 0.55467 0.64213 0.35202 0.910 0.129 1241.703 0.02141
-0.25846 -0.19522 0.55532 0.64288 0.35391 1.092 0.130 1241.733 0.02144
-0.25876 -0.19545 0.55596 0.64363 0.35580 1.321 0.135 1241.763 0.02146
-0.25907 -0.19567 0.55661 0.64437 0.35769 0.992 0.125 1241.792 0.02149
-0.25937 -0.19590 0.55726 0.64512 0.35957 1.090 0.131 1241.822 0.02151
-0.25967 -0.19613 0.55790 0.64587 0.36146 0.968 0.132 1241.852 0.02154
-0.25997 -0.19636 0.55855 0.64662 0.36335 1.001 0.127 1241.882 0.02156
-0.26027 -0.19658 0.55920 0.64737 0.36524 1.178 0.128 1241.912 0.02159
-0.26057 -0.19681 0.55984 0.64812 0.36713 0.931 0.130 1241.942 0.02161
-0.26087 -0.19704 0.56049 0.64887 0.36902 0.887 0.120 1241.972 0.02164
-0.26117 -0.19727 0.56114 0.64962 0.37091 0.973 0.125 1242.002 0.02166
-0.26147 -0.19749 0.56179 0.65037 0.37280 1.062 0.122 1242.031 0.02168
-0.26178 -0.19772 0.56243 0.65111 0.37469 0.916 0.129 1242.061 0.02171
-0.26208 -0.19795 0.56308 0.65186 0.37658 1.022 0.127 1242.091 0.02173
-0.26238 -0.19817 0.56373 0.65261 0.37847 0.801 0.122 1242.121 0.02176
-0.26268 -0.19840 0.56437 0.65336 0.38036 1.112 0.132 1242.151 0.02178
-0.26298 -0.19863 0.56502 0.65411 0.38225 1.142 0.127 1242.181 0.02181
-0.26328 -0.19886 0.56567 0.65486 0.38414 1.030 0.128 1242.211 0.02183
-0.26358 -0.19908 0.56632 0.65561 0.38603 1.241 0.131 1242.241 0.02186
-0.26388 -0.19931 0.56696 0.65636 0.38792 1.055 0.122 1242.271 0.02188
-0.26419 -0.19954 0.56761 0.65711 0.38981 0.929 0.130 1242.300 0.02191
-0.26449 -0.19977 0.56826 0.65786 0.39170 0.954 0.124 1242.330 0.02193
-0.26479 -0.20000 0.56890 0.65861 0.39359 1.055 0.122 1242.360 0.02196
-0.26509 -0.20022 0.56955 0.65936 0.39548 1.103 0.132 1242.390 0.02198
-0.26539 -0.20045 0.57020 0.66011 0.39737 1.078 0.138 1242.420 0.02200
-0.26569 -0.20068 0.57085 0.66085 0.39926 0.967 0.124 1242.450 0.02203
-0.26599 -0.20091 0.57149 0.66160 0.40115 0.993 0.126 1242.480 0.02205
-0.26629 -0.20113 0.57214 0.66235 0.40304 1.078 0.131 1242.510 0.02208
-0.26660 -0.20136 0.57279 0.66310 0.40493 1.154 0.127 1242.539 0.02210
-0.26690 -0.20159 0.57344 0.66385 0.40682 0.856 0.126 1242.569 0.02213
-0.26720 -0.20182 0.57408 0.66460 0.40871 0.991 0.134 1242.599 0.02215
-0.26750 -0.20204 0.57473 0.66535 0.41060 1.104 0.131 1242.629 0.02218
-0.26780 -0.20227 0.57538 0.66610 0.41249 0.880 0.127 1242.659 0.02220
-0.26810 -0.20250 0.57603 0.66685 0.41438 0.856 0.118 1242.689 0.02223
-0.26840 -0.20273 0.57667 0.66760 0.41628 0.732 0.118 1242.719 0.02225
-0.26871 -0.20295 0.57732 0.66835 0.41817 1.017 0.127 1242.749 0.02227
-0.26901 -0.20318 0.57797 0.66910 0.42006 0.893 0.120 1242.778 0.02230
-0.26931 -0.20341 0.57862 0.66985 0.42195 0.904 0.129 1242.808 0.02232
-0.26961 -0.20364 0.57926 0.67060 0.42384 0.917 0.129 1242.838 0.02235
-0.26991 -0.20386 0.57991 0.67135 0.42573 1.029 0.128 1242.868 0.02237
-0.27021 -0.20409 0.58056 0.67210 0.42762 1.066 0.130 1242.898 0.02240
-0.27051 -0.20432 0.58121 0.67285 0.42951 1.054 0.121 1242.928 0.02242
-0.27082 -0.20455 0.58185 0.67360 0.43141 1.128 0.126 1242.958 0.02245
-0.27112 -0.20478 0.58250 0.67435 0.43330 0.869 0.126 1242.988 0.02247
-0.27142 -0.20500 0.58315 0.67510 0.43519 0.991 0.133 1243.017 0.02250
-0.27172 -0.20523 0.58380 0.67585 0.43708 0.904 0.128 1243.047 0.02252
-0.27202 -0.20546 0.58445 0.67660 0.43897 1.053 0.129 1243.077 0.02254
-0.27232 -0.20569 0.58509 0.67735 0.44087 1.128 0.125 1243.107 0.02257
-0.27262 -0.20591 0.58574 0.67810 0.44276 0.906 0.128 1243.137 0.02259
-0.27293 -0.20614 0.58639 0.67885 0.44465 0.954 0.131 1243.167 0.02262
-0.27323 -0.20637 0.58704 0.67960 0.44654 1.042 0.128 1243.197 0.02264
-0.27353 -0.20660 0.58768 0.68035 0.44843 1.090 0.123 1243.227 0.02267
-0.27383 -0.20682 0.58833 0.68110 0.45033 0.855 0.125 1243.257 0.02269
-0.27413 -0.20705 0.58898 0.68185 0.45222 0.955 0.123 1243.286 0.02272
-0.27443 -0.20728 0.58963 0.68260 0.45411 1.016 0.134 1243.316 0.02274
-0.27474 -0.20751 0.59028 0.68335 0.45600 0.956 0.123 1243.346 0.02277
-0.27504 -0.20774 0.59092 0.68410 0.45790 1.176 0.120 1243.376 0.02279
-0.27534 -0.20796 0.59157 0.68485 0.45979 0.967 0.124 1243.406 0.02282
-0.27564 -0.20819 0.59222 0.68560 0.46168 0.855 0.116 1243.436 0.02284
-0.27594 -0.20842 0.59287 0.68635 0.46357 0.978 0.124 1243.466 0.02286
-0.27624 -0.20865 0.59352 0.68710 0.46547 0.881 0.126 1243.496 0.02289
-0.27655 -0.20888 0.59417 0.68785 0.46736 0.829 0.124 1243.525 0.02291
-0.27685 -0.20910 0.59481 0.68860 0.46925 1.076 0.130 1243.555 0.02294
-0.27715 -0.20933 0.59546 0.68935 0.47114 0.840 0.116 1243.585 0.02296
-0.27745 -0.20956 0.59611 0.69010 0.47304 0.867 0.126 1243.615 0.02299
-0.27775 -0.20979 0.59676 0.69085 0.47493 0.927 0.129 1243.645 0.02301
-0.27805 -0.21001 0.59741 0.69160 0.47682 0.657 0.113 1243.675 0.02304
-0.27836 -0.21024 0.59805 0.69235 0.47872 0.817 0.123 1243.705 0.02306
-0.27866 -0.21047 0.59870 0.69310 0.48061 0.963 0.131 1243.735 0.02309
-0.27896 -0.21070 0.59935 0.69385 0.48250 0.730 0.117 1243.764 0.02311
-0.27926 -0.21093 0.60000 0.69461 0.48440 0.853 0.117 1243.794 0.02313
-0.27956 -0.21115 0.60065 0.69536 0.48629 0.557 0.106 1243.824 0.02316
-0.27986 -0.21138 0.60130 0.69611 0.48818 0.692 0.115 1243.854 0.02318
-0.28017 -0.21161 0.60194 0.69686 0.49008 0.642 0.111 1243.884 0.02321
-0.28047 -0.21184 0.60259 0.69761 0.49197 0.545 0.105 1243.914 0.02323
-0.28077 -0.21207 0.60324 0.69836 0.49387 0.336 0.088 1243.944 0.02326
-0.28107 -0.21229 0.60389 0.69911 0.49576 0.251 0.079 1243.974 0.02328
-0.28137 -0.21252 0.60454 0.69986 0.49765 0.140 0.066 1244.003 0.02331
-0.28168 -0.21275 0.60519 0.70061 0.49955 0.091 0.059 1244.033 0.02333
-0.28198 -0.21298 0.60584 0.70136 0.50144 0.153 0.068 1244.063 0.02336
-0.28228 -0.21321 0.60648 0.70211 0.50334 0.018 0.045 1244.093 0.02338
-0.28258 -0.21343 0.60713 0.70286 0.50523 0.018 0.045 1244.123 0.02341
-0.28288 -0.21366 0.60778 0.70361 0.50712 0.042 0.050 1244.153 0.02343
-0.28318 -0.21389 0.60843 0.70437 0.50902 0.042 0.050 1244.183 0.02345
-0.28349 -0.21412 0.60908 0.70512 0.51091 0.006 0.042 1244.213 0.02348
-0.28379 -0.21435 0.60973 0.70587 0.51281 0.042 0.051 1244.243 0.02350
-0.28409 -0.21457 0.61038 0.70662 0.51470 -0.006 0.039 1244.272 0.02353
-0.28439 -0.21480 0.61103 0.70737 0.51660 0.006 0.042 1244.302 0.02355
-0.28469 -0.21503 0.61167 0.70812 0.51849 -0.006 0.039 1244.332 0.02358
-0.28500 -0.21526 0.61232 0.70887 0.52039 0.054 0.053 1244.362 0.02360
-0.28530 -0.21549 0.61297 0.70962 0.52228 0.103 0.061 1244.392 0.02363
-0.28560 -0.21571 0.61362 0.71037 0.52418 0.041 0.051 1244.422 0.02365
-0.28590 -0.21594 0.61427 0.71112 0.52607 0.066 0.055 1244.452 0.02368
