x y z dist_scaled dist_frac flux_norm wavelength redshift
-0.03923 -0.10914 0.48902 0.50258 0.00000 0.947 1236.115 0.01682
-0.03929 -0.10930 0.48974 0.50333 0.00188 1.191 1236.145 0.01684
-0.03935 -0.10946 0.49047 0.50407 0.00375 1.028 1236.175 0.01687
-0.03940 -0.10962 0.49119 0.50481 0.00563 1.109 1236.205 0.01689
-0.03946 -0.10979 0.49191 0.50556 0.00751 1.089 1236.235 0.01692
-0.03952 -0.10995 0.49264 0.50630 0.00938 0.703 1236.265 0.01694
-0.03958 -0.11011 0.49336 0.50705 0.01126 0.967 1236.295 0.01697
-0.03964 -0.11027 0.49408 0.50779 0.01313 0.926 1236.325 0.01699
-0.03969 -0.11043 0.49481 0.50853 0.01501 1.027 1236.355 0.01701
-0.03975 -0.11059 0.49553 0.50928 0.01689 1.027 1236.384 0.01704
-0.03981 -0.11075 0.49626 0.51002 0.01876 0.946 1236.414 0.01706
-0.03987 -0.11092 0.49698 0.51077 0.02064 0.925 1236.444 0.01709
-0.03993 -0.11108 0.49770 0.51151 0.02252 1.290 1236.474 0.01711
-0.03999 -0.11124 0.49843 0.51225 0.02440 1.229 1236.504 0.01714
-0.04004 -0.11140 0.49915 0.51300 0.02627 0.985 1236.534 0.01716
-0.04010 -0.11156 0.49988 0.51374 0.02815 0.823 1236.564 0.01719
-0.04016 -0.11172 0.50060 0.51449 0.03003 1.005 1236.594 0.01721
-0.04022 -0.11189 0.50132 0.51523 0.03190 1.147 1236.623 0.01724
-0.04028 -0.11205 0.50205 0.51597 0.03378 1.166 1236.653 0.01726
-0.04033 -0.11221 0.50277 0.51672 0.03566 1.145 1236.683 0.01729
-0.04039 -0.11237 0.50350 0.51746 0.03754 1.166 1236.713 0.01731
-0.04045 -0.11253 0.50422 0.51821 0.03941 0.802 1236.743 0.01733
-0.04051 -0.11269 0.50494 0.51895 0.04129 0.964 1236.773 0.01736
-0.04057 -0.11286 0.50567 0.51970 0.04317 0.923 1236.803 0.01738
-0.04062 -0.11302 0.50639 0.52044 0.04505 0.964 1236.833 0.01741
-0.04068 -0.11318 0.50712 0.52118 0.04692 1.105 1236.862 0.01743
-0.04074 -0.11334 0.50784 0.52193 0.04880 0.883 1236.892 0.01746
-0.04080 -0.11350 0.50857 0.52267 0.05068 0.903 1236.922 0.01748
-0.04086 -0.11366 0.50929 0.52342 0.05256 0.963 1236.952 0.01751
-0.04091 -0.11383 0.51002 0.52416 0.05444 1.065 1236.982 0.01753
-0.04097 -0.11399 0.51074 0.52491 0.05631 1.004 1237.012 0.01756
-0.04103 -0.11415 0.51146 0.52565 0.05819 0.801 1237.042 0.01758
-0.04109 -0.11431 0.51219 0.52640 0.06007 1.125 1237.072 0.01760
-0.04115 -0.11447 0.51291 0.52714 0.06195 0.862 1237.101 0.01763
-0.04121 -0.11463 0.51364 0.52788 0.06383 1.003 1237.131 0.01765
-0.04126 -0.11480 0.51436 0.52863 0.06571 0.862 1237.161 0.01768
-0.04132 -0.11496 0.51509 0.52937 0.06758 1.063 1237.191 0.01770
-0.04138 -0.11512 0.51581 0.53012 0.06946 0.922 1237.221 0.01773
-0.04144 -0.11528 0.51654 0.53086 0.07134 1.022 1237.251 0.01775
-0.04150 -0.11544 0.51726 0.53161 0.07322 0.881 1237.281 0.01778
-0.04155 -0.11560 0.51799 0.53235 0.07510 0.921 1237.311 0.01780
-0.04161 -0.11577 0.51871 0.53310 0.07698 0.961 1237.341 0.01783
-0.04167 -0.11593 0.51943 0.53384 0.07886 0.980 1237.370 0.01785
-0.04173 -0.11609 0.52016 0.53459 0.08074 0.879 1237.400 0.01788
-0.04179 -0.11625 0.52088 0.53533 0.08261 1.020 1237.430 0.01790
-0.04184 -0.11641 0.52161 0.53608 0.08449 1.121 1237.460 0.01792
-0.04190 -0.11657 0.52233 0.53682 0.08637 1.241 1237.490 0.01795
-0.04196 -0.11674 0.52306 0.53757 0.08825 1.121 1237.520 0.01797
-0.04202 -0.11690 0.52378 0.53831 0.09013 0.860 1237.550 0.01800
-0.04208 -0.11706 0.52451 0.53906 0.09201 1.275 1237.580 0.01802
-0.04214 -0.11722 0.52523 0.53980 0.09389 1.067 1237.609 0.01805
-0.04219 -0.11738 0.52596 0.54055 0.09577 1.308 1237.639 0.01807
-0.04225 -0.11755 0.52668 0.54129 0.09765 1.266 1237.669 0.01810
-0.04231 -0.11771 0.52741 0.54204 0.09953 0.951 1237.699 0.01812
-0.04237 -0.11787 0.52813 0.54278 0.10141 1.165 1237.729 0.01815
-0.04243 -0.11803 0.52886 0.54353 0.10329 1.347 1237.759 0.01817
-0.04248 -0.11819 0.52958 0.54427 0.10517 0.908 1237.789 0.01819
-0.04254 -0.11835 0.53031 0.54502 0.10705 1.000 1237.819 0.01822
-0.04260 -0.11852 0.53103 0.54576 0.10893 1.120 1237.848 0.01824
-0.04266 -0.11868 0.53176 0.54651 0.11081 1.107 1237.878 0.01827
-0.04272 -0.11884 0.53248 0.54725 0.11269 1.008 1237.908 0.01829
-0.04278 -0.11900 0.53321 0.54800 0.11457 0.891 1237.938 0.01832
-0.04283 -0.11916 0.53393 0.54874 0.11645 0.913 1237.968 0.01834
-0.04289 -0.11933 0.53466 0.54949 0.11833 1.121 1237.998 0.01837
-0.04295 -0.11949 0.53539 0.55024 0.12021 0.805 1238.028 0.01839
-0.04301 -0.11965 0.53611 0.55098 0.12209 0.998 1238.058 0.01842
-0.04307 -0.11981 0.53684 0.55173 0.12397 1.232 1238.087 0.01844
-0.04312 -0.11997 0.53756 0.55247 0.12585 1.277 1238.117 0.01847
-0.04318 -0.12014 0.53829 0.55322 0.12773 1.056 1238.147 0.01849
-0.04324 -0.12030 0.53901 0.55396 0.12961 0.815 1238.177 0.01851
-0.04330 -0.12046 0.53974 0.55471 0.13149 0.835 1238.207 0.01854
-0.04336 -0.12062 0.54046 0.55545 0.13338 1.075 1238.237 0.01856
-0.04342 -0.12078 0.54119 0.55620 0.13526 0.975 1238.267 0.01859
-0.04347 -0.12094 0.54191 0.55695 0.13714 1.095 1238.297 0.01861
-0.04353 -0.12111 0.54264 0.55769 0.13902 0.854 1238.327 0.01864
-0.04359 -0.12127 0.54337 0.55844 0.14090 0.994 1238.356 0.01866
-0.04365 -0.12143 0.54409 0.55918 0.14278 1.075 1238.386 0.01869
-0.04371 -0.12159 0.54482 0.55993 0.14466 1.155 1238.416 0.01871
-0.04376 -0.12175 0.54554 0.56067 0.14654 1.155 1238.446 0.01874
-0.04382 -0.12192 0.54627 0.56142 0.14843 0.795 1238.476 0.01876
-0.04388 -0.12208 0.54699 0.56217 0.15031 0.954 1238.506 0.01878
-0.04394 -0.12224 0.54772 0.56291 0.15219 1.073 1238.536 0.01881
-0.04400 -0.12240 0.54845 0.56366 0.15407 0.972 1238.566 0.01883
-0.04406 -0.12256 0.54917 0.56440 0.15595 0.912 1238.595 0.01886
-0.04411 -0.12273 0.54990 0.56515 0.15783 1.332 1238.625 0.01888
-0.04417 -0.12289 0.55062 0.56590 0.15972 0.912 1238.655 0.01891
-0.04423 -0.12305 0.55135 0.56664 0.16160 0.852 1238.685 0.01893
-0.04429 -0.12321 0.55207 0.56739 0.16348 1.072 1238.715 0.01896
-0.04435 -0.12337 0.55280 0.56813 0.16536 0.971 1238.745 0.01898
-0.04441 -0.12354 0.55353 0.56888 0.16724 0.951 1238.775 0.01901
-0.04446 -0.12370 0.55425 0.56963 0.16913 0.572 1238.805 0.01903
-0.04452 -0.12386 0.55498 0.57037 0.17101 0.931 1238.834 0.01905
-0.04458 -0.12402 0.55570 0.57112 0.17289 0.931 1238.864 0.01908
-0.04464 -0.12418 0.55643 0.57186 0.17477 0.831 1238.894 0.01910
-0.04470 -0.12435 0.55716 0.57261 0.17665 1.049 1238.924 0.01913
-0.04475 -0.12451 0.55788 0.57336 0.17854 0.889 1238.954 0.01915
-0.04481 -0.12467 0.55861 0.57410 0.18042 0.969 1238.984 0.01918
-0.04487 -0.12483 0.55934 0.57485 0.18230 1.148 1239.014 0.01920
-0.04493 -0.12499 0.56006 0.57560 0.18419 0.650 1239.044 0.01923
-0.04499 -0.12516 0.56079 0.57634 0.18607 0.909 1239.073 0.01925
-0.04505 -0.12532 0.56151 0.57709 0.18795 1.128 1239.103 0.01928
-0.04510 -0.12548 0.56224 0.57784 0.18983 0.909 1239.133 0.01930
-0.04516 -0.12564 0.56297 0.57858 0.19172 0.889 1239.163 0.01933
-0.04522 -0.12581 0.56369 0.57933 0.19360 1.168 1239.193 0.01935
-0.04528 -0.12597 0.56442 0.58007 0.19548 1.128 1239.223 0.01937
-0.04534 -0.12613 0.56515 0.58082 0.19737 1.128 1239.253 0.01940
-0.04540 -0.12629 0.56587 0.58157 0.19925 0.969 1239.283 0.01942
-0.04545 -0.12645 0.56660 0.58231 0.20113 0.829 1239.313 0.01945
-0.04551 -0.12662 0.56732 0.58306 0.20302 0.949 1239.342 0.01947
-0.04557 -0.12678 0.56805 0.58381 0.20490 1.088 1239.372 0.01950
-0.04563 -0.12694 0.56878 0.58455 0.20678 1.068 1239.402 0.01952
-0.04569 -0.12710 0.56950 0.58530 0.20867 1.107 1239.432 0.01955
-0.04575 -0.12726 0.57023 0.58605 0.21055 1.007 1239.462 0.01957
-0.04580 -0.12743 0.57096 0.58679 0.21243 0.928 1239.492 0.01960
-0.04586 -0.12759 0.57168 0.58754 0.21432 1.087 1239.522 0.01962
-0.04592 -0.12775 0.57241 0.58829 0.21620 1.086 1239.552 0.01964
-0.04598 -0.12791 0.57314 0.58904 0.21809 0.907 1239.581 0.01967
-0.04604 -0.12808 0.57386 0.58978 0.21997 0.966 1239.611 0.01969
-0.04610 -0.12824 0.57459 0.59053 0.22185 0.767 1239.641 0.01972
-0.04615 -0.12840 0.57532 0.59128 0.22374 1.026 1239.671 0.01974
-0.04621 -0.12856 0.57604 0.59202 0.22562 0.807 1239.701 0.01977
-0.04627 -0.12872 0.57677 0.59277 0.22751 1.125 1239.731 0.01979
-0.04633 -0.12889 0.57750 0.59352 0.22939 0.827 1239.761 0.01982
-0.04639 -0.12905 0.57822 0.59426 0.23128 0.747 1239.791 0.01984
-0.04644 -0.12921 0.57895 0.59501 0.23316 0.807 1239.820 0.01987
-0.04650 -0.12937 0.57968 0.59576 0.23504 0.867 1239.850 0.01989
-0.04656 -0.12954 0.58041 0.59650 0.23693 0.886 1239.880 0.01992
-0.04662 -0.12970 0.58113 0.59725 0.23881 0.887 1239.910 0.01994
-0.04668 -0.12986 0.58186 0.59800 0.24070 1.185 1239.940 0.01996
-0.04674 -0.13002 0.58259 0.59875 0.24258 0.748 1239.970 0.01999
-0.04679 -0.13018 0.58331 0.59949 0.24447 0.907 1240.000 0.02001
-0.04685 -0.13035 0.58404 0.60024 0.24635 1.105 1240.030 0.02004
-0.04691 -0.13051 0.58477 0.60099 0.24824 1.025 1240.059 0.02006
-0.04697 -0.13067 0.58549 0.60174 0.25012 1.024 1240.089 0.02009
-0.04703 -0.13083 0.58622 0.60248 0.25201 0.767 1240.119 0.02011
-0.04709 -0.13100 0.58695 0.60323 0.25389 0.886 1240.149 0.02014
-0.04714 -0.13116 0.58768 0.60398 0.25578 1.005 1240.179 0.02016
-0.04720 -0.13132 0.58840 0.60472 0.25766 0.925 1240.209 0.02019
-0.04726 -0.13148 0.58913 0.60547 0.25955 1.041 1240.239 0.02021
-0.04732 -0.13164 0.58986 0.60622 0.26144 1.081 1240.269 0.02023
-0.04738 -0.13181 0.59059 0.60697 0.26332 0.919 1240.299 0.02026
-0.04744 -0.13197 0.59131 0.60771 0.26521 1.038 1240.328 0.02028
-0.04749 -0.13213 0.59204 0.60846 0.26709 0.914 1240.358 0.02031
-0.04755 -0.13229 0.59277 0.60921 0.26898 1.306 1240.388 0.02033
-0.04761 -0.13246 0.59349 0.60996 0.27086 0.953 1240.418 0.02036
-0.04767 -0.13262 0.59422 0.61070 0.27275 1.117 1240.448 0.02038
-0.04773 -0.13278 0.59495 0.61145 0.27464 1.095 1240.478 0.02041
-0.04779 -0.13294 0.59568 0.61220 0.27652 0.910 1240.508 0.02043
-0.04785 -0.13311 0.59640 0.61295 0.27841 1.131 1240.538 0.02046
-0.04790 -0.13327 0.59713 0.61370 0.28029 1.140 1240.567 0.02048
-0.04796 -0.13343 0.59786 0.61444 0.28218 1.123 1240.597 0.02050
-0.04802 -0.13359 0.59859 0.61519 0.28407 0.995 1240.627 0.02053
-0.04808 -0.13376 0.59931 0.61594 0.28595 1.072 1240.657 0.02055
-0.04814 -0.13392 0.60004 0.61669 0.28784 1.016 1240.687 0.02058
-0.04820 -0.13408 0.60077 0.61743 0.28973 0.992 1240.717 0.02060
-0.04825 -0.13424 0.60150 0.61818 0.29161 1.364 1240.747 0.02063
-0.04831 -0.13441 0.60223 0.61893 0.29350 1.022 1240.777 0.02065
-0.04837 -0.13457 0.60295 0.61968 0.29539 1.140 1240.806 0.02068
-0.04843 -0.13473 0.60368 0.62043 0.29727 0.942 1240.836 0.02070
-0.04849 -0.13489 0.60441 0.62117 0.29916 0.922 1240.866 0.02073
-0.04855 -0.13505 0.60514 0.62192 0.30105 0.882 1240.896 0.02075
-0.04860 -0.13522 0.60586 0.62267 0.30293 1.119 1240.926 0.02078
-0.04866 -0.13538 0.60659 0.62342 0.30482 0.882 1240.956 0.02080
-0.04872 -0.13554 0.60732 0.62417 0.30671 0.980 1240.986 0.02082
-0.04878 -0.13570 0.60805 0.62491 0.30859 0.881 1241.016 0.02085
-0.04884 -0.13587 0.60878 0.62566 0.31048 1.078 1241.045 0.02087
-0.04890 -0.13603 0.60950 0.62641 0.31237 1.138 1241.075 0.02090
-0.04895 -0.13619 0.61023 0.62716 0.31426 0.723 1241.105 0.02092
-0.04901 -0.13635 0.61096 0.62791 0.31614 0.881 1241.135 0.02095
-0.04907 -0.13652 0.61169 0.62866 0.31803 1.117 1241.165 0.02097
-0.04913 -0.13668 0.61242 0.62940 0.31992 0.939 1241.195 0.02100
-0.04919 -0.13684 0.61314 0.63015 0.32181 0.918 1241.225 0.02102
-0.04925 -0.13700 0.61387 0.63090 0.32369 0.859 1241.255 0.02105
-0.04930 -0.13717 0.61460 0.63165 0.32558 1.293 1241.285 0.02107
-0.04936 -0.13733 0.61533 0.63240 0.32747 1.194 1241.314 0.02109
-0.04942 -0.13749 0.61606 0.63315 0.32936 1.075 1241.344 0.02112
-0.04948 -0.13765 0.61679 0.63389 0.33125 1.075 1241.374 0.02114
-0.04954 -0.13782 0.61751 0.63464 0.33313 0.838 1241.404 0.02117
-0.04960 -0.13798 0.61824 0.63539 0.33502 0.937 1241.434 0.02119
-0.04966 -0.13814 0.61897 0.63614 0.33691 1.252 1241.464 0.02122
-0.04971 -0.13830 0.61970 0.63689 0.33880 0.917 1241.494 0.02124
-0.04977 -0.13847 0.62043 0.63764 0.34069 1.035 1241.524 0.02127
-0.04983 -0.13863 0.62116 0.63838 0.34258 0.916 1241.553 0.02129
-0.04989 -0.13879 0.62188 0.63913 0.34446 0.837 1241.583 0.02132
-0.04995 -0.13895 0.62261 0.63988 0.34635 0.975 1241.613 0.02134
-0.05001 -0.13912 0.62334 0.64063 0.34824 0.994 1241.643 0.02137
-0.05006 -0.13928 0.62407 0.64138 0.35013 1.191 1241.673 0.02139
-0.05012 -0.13944 0.62480 0.64213 0.35202 0.975 1241.703 0.02141
-0.05018 -0.13961 0.62553 0.64288 0.35391 0.955 1241.733 0.02144
-0.05024 -0.13977 0.62625 0.64363 0.35580 1.112 1241.763 0.02146
-0.05030 -0.13993 0.62698 0.64437 0.35769 0.876 1241.792 0.02149
-0.05036 -0.14009 0.62771 0.64512 0.35957 0.797 1241.822 0.02151
-0.05042 -0.14026 0.62844 0.64587 0.36146 0.955 1241.852 0.02154
-0.05047 -0.14042 0.62917 0.64662 0.36335 1.191 1241.882 0.02156
-0.05053 -0.14058 0.62990 0.64737 0.36524 0.994 1241.912 0.02159
-0.05059 -0.14074 0.63063 0.64812 0.36713 1.073 1241.942 0.02161
-0.05065 -0.14091 0.63136 0.64887 0.36902 1.034 1241.972 0.02164
-0.05071 -0.14107 0.63208 0.64962 0.37091 1.093 1242.002 0.02166
-0.05077 -0.14123 0.63281 0.65037 0.37280 1.112 1242.031 0.02168
-0.05082 -0.14139 0.63354 0.65111 0.37469 0.876 1242.061 0.02171
-0.05088 -0.14156 0.63427 0.65186 0.37658 0.914 1242.091 0.02173
-0.05094 -0.14172 0.63500 0.65261 0.37847 1.071 1242.121 0.02176
-0.05100 -0.14188 0.63573 0.65336 0.38036 1.130 1242.151 0.02178
-0.05106 -0.14204 0.63646 0.65411 0.38225 1.130 1242.181 0.02181
-0.05112 -0.14221 0.63719 0.65486 0.38414 0.934 1242.211 0.02183
-0.05118 -0.14237 0.63792 0.65561 0.38603 0.619 1242.241 0.02186
-0.05123 -0.14253 0.63864 0.65636 0.38792 0.992 1242.271 0.02188
-0.05129 -0.14270 0.63937 0.65711 0.38981 0.776 1242.300 0.02191
-0.05135 -0.14286 0.64010 0.65786 0.39170 0.599 1242.330 0.02193
-0.05141 -0.14302 0.64083 0.65861 0.39359 0.874 1242.360 0.02196
-0.05147 -0.14318 0.64156 0.65936 0.39548 0.874 1242.390 0.02198
-0.05153 -0.14335 0.64229 0.66011 0.39737 0.835 1242.420 0.02200
-0.05158 -0.14351 0.64302 0.66085 0.39926 0.619 1242.450 0.02203
-0.05164 -0.14367 0.64375 0.66160 0.40115 0.520 1242.480 0.02205
-0.05170 -0.14383 0.64448 0.66235 0.40304 0.402 1242.510 0.02208
-0.05176 -0.14400 0.64521 0.66310 0.40493 0.560 1242.539 0.02210
-0.05182 -0.14416 0.64594 0.66385 0.40682 0.560 1242.569 0.02213
-0.05188 -0.14432 0.64666 0.66460 0.40871 0.501 1242.599 0.02215
-0.05194 -0.14449 0.64739 0.66535 0.41060 0.462 1242.629 0.02218
-0.05199 -0.14465 0.64812 0.66610 0.41249 0.639 1242.659 0.02220
-0.05205 -0.14481 0.64885 0.66685 0.41438 0.894 1242.689 0.02223
-0.05211 -0.14497 0.64958 0.66760 0.41628 0.796 1242.719 0.02225
-0.05217 -0.14514 0.65031 0.66835 0.41817 0.835 1242.749 0.02227
-0.05223 -0.14530 0.65104 0.66910 0.42006 1.110 1242.778 0.02230
-0.05229 -0.14546 0.65177 0.66985 0.42195 0.874 1242.808 0.02232
-0.05235 -0.14563 0.65250 0.67060 0.42384 0.796 1242.838 0.02235
-0.05240 -0.14579 0.65323 0.67135 0.42573 0.992 1242.868 0.02237
-0.05246 -0.14595 0.65396 0.67210 0.42762 0.913 1242.898 0.02240
-0.05252 -0.14611 0.65469 0.67285 0.42951 0.933 1242.928 0.02242
-0.05258 -0.14628 0.65542 0.67360 0.43141 0.992 1242.958 0.02245
-0.05264 -0.14644 0.65615 0.67435 0.43330 0.913 1242.988 0.02247
-0.05270 -0.14660 0.65688 0.67510 0.43519 0.835 1243.017 0.02250
-0.05275 -0.14677 0.65761 0.67585 0.43708 1.266 1243.047 0.02252
-0.05281 -0.14693 0.65834 0.67660 0.43897 1.012 1243.077 0.02254
-0.05287 -0.14709 0.65907 0.67735 0.44087 0.973 1243.107 0.02257
-0.05293 -0.14725 0.65980 0.67810 0.44276 0.954 1243.137 0.02259
-0.05299 -0.14742 0.66053 0.67885 0.44465 1.032 1243.167 0.02262
-0.05305 -0.14758 0.66126 0.67960 0.44654 0.993 1243.197 0.02264
-0.05311 -0.14774 0.66199 0.68035 0.44843 1.091 1243.227 0.02267
-0.05316 -0.14791 0.66272 0.68110 0.45033 0.973 1243.257 0.02269
-0.05322 -0.14807 0.66345 0.68185 0.45222 0.973 1243.286 0.02272
-0.05328 -0.14823 0.66418 0.68260 0.45411 1.110 1243.316 0.02274
-0.05334 -0.14839 0.66491 0.68335 0.45600 0.973 1243.346 0.02277
-0.05340 -0.14856 0.66564 0.68410 0.45790 1.266 1243.376 0.02279
-0.05346 -0.14872 0.66637 0.68485 0.45979 1.090 1243.406 0.02282
-0.05352 -0.14888 0.66710 0.68560 0.46168 1.168 1243.436 0.02284
-0.05357 -0.14905 0.66783 0.68635 0.46357 0.874 1243.466 0.02286
-0.05363 -0.14921 0.66856 0.68710 0.46547 0.875 1243.496 0.02289
-0.05369 -0.14937 0.66929 0.68785 0.46736 1.071 1243.525 0.02291
-0.05375 -0.14953 0.67002 0.68860 0.46925 0.973 1243.555 0.02294
-0.05381 -0.14970 0.67075 0.68935 0.47114 0.894 1243.585 0.02296
-0.05387 -0.14986 0.67148 0.69010 0.47304 1.207 1243.615 0.02299
-0.05393 -0.15002 0.67221 0.69085 0.47493 1.108 1243.645 0.02301
-0.05398 -0.15019 0.67294 0.69160 0.47682 0.874 1243.675 0.02304
-0.05404 -0.15035 0.67367 0.69235 0.47872 0.893 1243.705 0.02306
-0.05410 -0.15051 0.67440 0.69310 0.48061 1.108 1243.735 0.02309
-0.05416 -0.15068 0.67513 0.69385 0.48250 0.951 1243.764 0.02311
-0.05422 -0.15084 0.67586 0.69461 0.48440 0.833 1243.794 0.02313
-0.05428 -0.15100 0.67659 0.69536 0.48629 0.931 1243.824 0.02316
-0.05434 -0.15116 0.67732 0.69611 0.48818 0.755 1243.854 0.02318
-0.05439 -0.15133 0.67805 0.69686 0.49008 1.028 1243.884 0.02321
-0.05445 -0.15149 0.67878 0.69761 0.49197 1.263 1243.914 0.02323
-0.05451 -0.15165 0.67951 0.69836 0.49387 0.871 1243.944 0.02326
-0.05457 -0.15182 0.68024 0.69911 0.49576 1.008 1243.974 0.02328
-0.05463 -0.15198 0.68097 0.69986 0.49765 0.988 1244.003 0.02331
-0.05469 -0.15214 0.68170 0.70061 0.49955 1.027 1244.033 0.02333
-0.05475 -0.15231 0.68243 0.70136 0.50144 0.968 1244.063 0.02336
-0.05480 -0.15247 0.68316 0.70211 0.50334 1.144 1244.093 0.02338
-0.05486 -0.15263 0.68389 0.70286 0.50523 0.812 1244.123 0.02341
-0.05492 -0.15279 0.68462 0.70361 0.50712 0.890 1244.153 0.02343
-0.05498 -0.15296 0.68535 0.70437 0.50902 1.007 1244.183 0.02345
-0.05504 -0.15312 0.68609 0.70512 0.51091 1.085 1244.213 0.02348
-0.05510 -0.15328 0.68682 0.70587 0.51281 1.182 1244.243 0.02350
-0.05516 -0.15345 0.68755 0.70662 0.51470 0.987 1244.272 0.02353
-0.05522 -0.15361 0.68828 0.70737 0.51660 1.045 1244.302 0.02355
-0.05527 -0.15377 0.68901 0.70812 0.51849 0.967 1244.332 0.02358
-0.05533 -0.15394 0.68974 0.70887 0.52039 1.240 1244.362 0.02360
-0.05539 -0.15410 0.69047 0.70962 0.52228 1.181 1244.392 0.02363
-0.05545 -0.15426 0.69120 0.71037 0.52418 0.849 1244.422 0.02365
-0.05551 -0.15443 0.69193 0.71112 0.52607 0.986 1244.452 0.02368
-0.05557 -0.15459 0.69266 0.71188 0.52797 0.869 1244.482 0.02370
-0.05563 -0.15475 0.69339 0.71263 0.52986 0.888 1244.511 0.02372
-0.05568 -0.15492 0.69413 0.71338 0.53176 0.966 1244.541 0.02375
-0.05574 -0.15508 0.69486 0.71413 0.53365 1.161 1244.571 0.02377
-0.05580 -0.15524 0.69559 0.71488 0.53555 0.907 1244.601 0.02380
-0.05586 -0.15540 0.69632 0.71563 0.53744 1.122 1244.631 0.02382
-0.05592 -0.15557 0.69705 0.71638 0.53934 0.927 1244.661 0.02385
-0.05598 -0.15573 0.69778 0.71714 0.54123 0.888 1244.691 0.02387
-0.05604 -0.15589 0.69851 0.71789 0.54313 1.064 1244.721 0.02390
-0.05609 -0.15606 0.69924 0.71864 0.54502 1.181 1244.750 0.02392
-0.05615 -0.15622 0.69997 0.71939 0.54692 0.811 1244.780 0.02395
-0.05621 -0.15638 0.70071 0.72014 0.54882 1.103 1244.810 0.02397
-0.05627 -0.15655 0.70144 0.72089 0.55071 1.084 1244.840 0.02400
-0.05633 -0.15671 0.70217 0.72164 0.55261 0.752 1244.870 0.02402
-0.05639 -0.15687 0.70290 0.72240 0.55450 0.985 1244.900 0.02404
-0.05645 -0.15704 0.70363 0.72315 0.55640 1.102 1244.930 0.02407
-0.05651 -0.15720 0.70436 0.72390 0.55829 1.141 1244.960 0.02409
-0.05656 -0.15736 0.70509 0.72465 0.56019 1.160 1244.989 0.02412
-0.05662 -0.15753 0.70582 0.72540 0.56209 1.179 1245.019 0.02414
-0.05668 -0.15769 0.70656 0.72615 0.56398 1.141 1245.049 0.02417
-0.05674 -0.15785 0.70729 0.72691 0.56588 0.869 1245.079 0.02419
-0.05680 -0.15802 0.70802 0.72766 0.56778 1.043 1245.109 0.02422
-0.05686 -0.15818 0.70875 0.72841 0.56967 1.043 1245.139 0.02424
-0.05692 -0.15834 0.70948 0.72916 0.57157 0.946 1245.169 0.02427
-0.05698 -0.15851 0.71021 0.72991 0.57347 1.257 1245.199 0.02429
-0.05703 -0.15867 0.71094 0.73066 0.57536 0.927 1245.229 0.02431
