x y z dist_scaled dist_frac flux_norm sig_norm wavelength redshift
-0.18196 0.11756 0.45360 0.50267 0.00000 1.019 0.074 1236.119 0.01682
-0.18223 0.11774 0.45427 0.50342 0.00188 1.012 0.073 1236.149 0.01685
-0.18250 0.11791 0.45494 0.50416 0.00376 1.071 0.075 1236.179 0.01687
-0.18276 0.11808 0.45561 0.50491 0.00564 1.114 0.077 1236.209 0.01690
-0.18303 0.11826 0.45628 0.50565 0.00752 1.131 0.078 1236.239 0.01692
-0.18330 0.11843 0.45696 0.50639 0.00940 1.066 0.075 1236.269 0.01694
-0.18357 0.11861 0.45763 0.50714 0.01128 0.987 0.072 1236.299 0.01697
-0.18384 0.11878 0.45830 0.50788 0.01316 0.993 0.073 1236.328 0.01699
-0.18411 0.11895 0.45897 0.50863 0.01504 0.966 0.072 1236.358 0.01702
-0.18438 0.11913 0.45964 0.50937 0.01692 0.991 0.073 1236.388 0.01704
-0.18465 0.11930 0.46031 0.51012 0.01880 0.918 0.070 1236.418 0.01707
-0.18492 0.11948 0.46099 0.51086 0.02068 1.098 0.076 1236.448 0.01709
-0.18519 0.11965 0.46166 0.51160 0.02256 0.870 0.068 1236.478 0.01712
-0.18546 0.11982 0.46233 0.51235 0.02444 0.859 0.068 1236.508 0.01714
-0.18573 0.12000 0.46300 0.51309 0.02632 1.105 0.077 1236.538 0.01717
-0.18600 0.12017 0.46367 0.51384 0.02820 1.179 0.079 1236.568 0.01719
-0.18627 0.12035 0.46434 0.51458 0.03008 0.982 0.072 1236.597 0.01721
-0.18654 0.12052 0.46502 0.51533 0.03196 1.036 0.074 1236.627 0.01724
-0.18681 0.12070 0.46569 0.51607 0.03385 0.913 0.070 1236.657 0.01726
-0.18708 0.12087 0.46636 0.51682 0.03573 0.897 0.069 1236.687 0.01729
-0.18735 0.12104 0.46703 0.51756 0.03761 1.202 0.080 1236.717 0.01731
-0.18761 0.12122 0.46770 0.51831 0.03949 1.010 0.073 1236.747 0.01734
-0.18788 0.12139 0.46838 0.51905 0.04137 0.892 0.069 1236.777 0.01736
-0.18815 0.12157 0.46905 0.51979 0.04325 1.122 0.077 1236.807 0.01739
-0.18842 0.12174 0.46972 0.52054 0.04513 1.068 0.075 1236.837 0.01741
-0.18869 0.12191 0.47039 0.52128 0.04701 1.064 0.075 1236.866 0.01744
-0.18896 0.12209 0.47106 0.52203 0.04890 1.175 0.079 1236.896 0.01746
-0.18923 0.12226 0.47174 0.52277 0.05078 0.935 0.071 1236.926 0.01749
-0.18950 0.12244 0.47241 0.52352 0.05266 0.908 0.070 1236.956 0.01751
-0.18977 0.12261 0.47308 0.52426 0.05454 1.009 0.073 1236.986 0.01753
-0.19004 0.12279 0.47375 0.52501 0.05642 0.994 0.073 1237.016 0.01756
-0.19031 0.12296 0.47442 0.52575 0.05830 1.063 0.075 1237.046 0.01758
-0.19058 0.12313 0.47510 0.52650 0.06019 1.020 0.074 1237.076 0.01761
-0.19085 0.12331 0.47577 0.52724 0.06207 1.024 0.074 1237.106 0.01763
-0.19112 0.12348 0.47644 0.52799 0.06395 1.080 0.076 1237.135 0.01766
-0.19139 0.12366 0.47711 0.52873 0.06583 1.001 0.073 1237.165 0.01768
-0.19166 0.12383 0.47779 0.52948 0.06771 0.962 0.072 1237.195 0.01771
-0.19193 0.12400 0.47846 0.53022 0.06960 1.084 0.076 1237.225 0.01773
-0.19220 0.12418 0.47913 0.53097 0.07148 1.052 0.075 1237.255 0.01776
-0.19247 0.12435 0.47980 0.53171 0.07336 1.082 0.076 1237.285 0.01778
-0.19274 0.12453 0.48048 0.53246 0.07524 0.992 0.073 1237.315 0.01780
-0.19301 0.12470 0.48115 0.53320 0.07713 0.974 0.072 1237.345 0.01783
-0.19328 0.12488 0.48182 0.53395 0.07901 0.914 0.070 1237.375 0.01785
-0.19355 0.12505 0.48249 0.53469 0.08089 1.163 0.079 1237.405 0.01788
-0.19382 0.12522 0.48317 0.53544 0.08277 0.984 0.072 1237.434 0.01790
-0.19409 0.12540 0.48384 0.53618 0.08466 0.942 0.071 1237.464 0.01793
-0.19436 0.12557 0.48451 0.53693 0.08654 1.052 0.075 1237.494 0.01795
-0.19463 0.12575 0.48518 0.53767 0.08842 0.940 0.071 1237.524 0.01798
-0.19490 0.12592 0.48586 0.53842 0.09030 1.006 0.073 1237.554 0.01800
-0.19517 0.12610 0.48653 0.53917 0.09219 0.972 0.072 1237.584 0.01803
-0.19544 0.12627 0.48720 0.53991 0.09407 0.888 0.069 1237.614 0.01805
-0.19571 0.12645 0.48787 0.54066 0.09595 0.931 0.070 1237.644 0.01808
-0.19598 0.12662 0.48855 0.54140 0.09784 0.989 0.073 1237.674 0.01810
-0.19625 0.12679 0.48922 0.54215 0.09972 0.999 0.073 1237.703 0.01812
-0.19651 0.12697 0.48989 0.54289 0.10160 1.063 0.075 1237.733 0.01815
-0.19678 0.12714 0.49056 0.54364 0.10349 1.038 0.074 1237.763 0.01817
-0.19705 0.12732 0.49124 0.54438 0.10537 1.012 0.073 1237.793 0.01820
-0.19732 0.12749 0.49191 0.54513 0.10725 0.936 0.071 1237.823 0.01822
-0.19759 0.12767 0.49258 0.54587 0.10914 1.123 0.077 1237.853 0.01825
-0.19786 0.12784 0.49326 0.54662 0.11102 0.947 0.071 1237.883 0.01827
-0.19813 0.12801 0.49393 0.54737 0.11290 0.867 0.068 1237.913 0.01830
-0.19840 0.12819 0.49460 0.54811 0.11479 0.990 0.073 1237.943 0.01832
-0.19867 0.12836 0.49527 0.54886 0.11667 1.006 0.073 1237.972 0.01835
-0.19894 0.12854 0.49595 0.54960 0.11856 1.070 0.076 1238.002 0.01837
-0.19921 0.12871 0.49662 0.55035 0.12044 0.920 0.070 1238.032 0.01840
-0.19948 0.12889 0.49729 0.55109 0.12232 1.006 0.073 1238.062 0.01842
-0.19975 0.12906 0.49797 0.55184 0.12421 1.028 0.074 1238.092 0.01844
-0.20002 0.12924 0.49864 0.55259 0.12609 1.012 0.073 1238.122 0.01847
-0.20029 0.12941 0.49931 0.55333 0.12798 1.006 0.073 1238.152 0.01849
-0.20056 0.12958 0.49998 0.55408 0.12986 0.995 0.073 1238.182 0.01852
-0.20083 0.12976 0.50066 0.55482 0.13175 1.006 0.073 1238.212 0.01854
-0.20110 0.12993 0.50133 0.55557 0.13363 1.038 0.074 1238.242 0.01857
-0.20137 0.13011 0.50200 0.55632 0.13551 1.017 0.074 1238.271 0.01859
-0.20164 0.13028 0.50268 0.55706 0.13740 1.130 0.078 1238.301 0.01862
-0.20191 0.13046 0.50335 0.55781 0.13928 0.958 0.072 1238.331 0.01864
-0.20218 0.13063 0.50402 0.55855 0.14117 1.109 0.077 1238.361 0.01867
-0.20245 0.13081 0.50470 0.55930 0.14305 0.810 0.066 1238.391 0.01869
-0.20272 0.13098 0.50537 0.56005 0.14494 0.863 0.068 1238.421 0.01871
-0.20299 0.13115 0.50604 0.56079 0.14682 0.906 0.070 1238.451 0.01874
-0.20326 0.13133 0.50672 0.56154 0.14871 0.996 0.073 1238.481 0.01876
-0.20353 0.13150 0.50739 0.56229 0.15059 0.895 0.069 1238.511 0.01879
-0.20380 0.13168 0.50806 0.56303 0.15248 0.899 0.069 1238.540 0.01881
-0.20407 0.13185 0.50874 0.56378 0.15436 0.854 0.068 1238.570 0.01884
-0.20434 0.13203 0.50941 0.56452 0.15625 0.839 0.067 1238.600 0.01886
-0.20462 0.13220 0.51008 0.56527 0.15813 0.948 0.071 1238.630 0.01889
-0.20489 0.13238 0.51076 0.56602 0.16002 0.808 0.066 1238.660 0.01891
-0.20516 0.13255 0.51143 0.56676 0.16191 0.870 0.068 1238.690 0.01894
-0.20543 0.13273 0.51210 0.56751 0.16379 0.904 0.069 1238.720 0.01896
-0.20570 0.13290 0.51278 0.56826 0.16568 0.931 0.071 1238.750 0.01899
-0.20597 0.13307 0.51345 0.56900 0.16756 1.047 0.075 1238.780 0.01901
-0.20624 0.13325 0.51413 0.56975 0.16945 0.898 0.069 1238.809 0.01903
-0.20651 0.13342 0.51480 0.57050 0.17133 0.970 0.072 1238.839 0.01906
-0.20678 0.13360 0.51547 0.57124 0.17322 1.021 0.074 1238.869 0.01908
-0.20705 0.13377 0.51615 0.57199 0.17511 0.966 0.072 1238.899 0.01911
-0.20732 0.13395 0.51682 0.57273 0.17699 0.940 0.071 1238.929 0.01913
-0.20759 0.13412 0.51749 0.57348 0.17888 0.989 0.073 1238.959 0.01916
-0.20786 0.13430 0.51817 0.57423 0.18076 1.014 0.074 1238.989 0.01918
-0.20813 0.13447 0.51884 0.57497 0.18265 0.994 0.073 1239.019 0.01921
-0.20840 0.13465 0.51951 0.57572 0.18454 0.860 0.068 1239.049 0.01923
-0.20867 0.13482 0.52019 0.57647 0.18642 0.984 0.073 1239.078 0.01926
-0.20894 0.13500 0.52086 0.57721 0.18831 1.037 0.074 1239.108 0.01928
-0.20921 0.13517 0.52154 0.57796 0.19020 0.968 0.072 1239.138 0.01930
-0.20948 0.13534 0.52221 0.57871 0.19208 1.032 0.074 1239.168 0.01933
-0.20975 0.13552 0.52288 0.57946 0.19397 0.953 0.071 1239.198 0.01935
-0.21002 0.13569 0.52356 0.58020 0.19586 0.932 0.071 1239.228 0.01938
-0.21029 0.13587 0.52423 0.58095 0.19774 0.931 0.071 1239.258 0.01940
-0.21056 0.13604 0.52491 0.58170 0.19963 1.033 0.074 1239.288 0.01943
-0.21083 0.13622 0.52558 0.58244 0.20152 0.979 0.072 1239.318 0.01945
-0.21110 0.13639 0.52625 0.58319 0.20340 1.010 0.073 1239.348 0.01948
-0.21137 0.13657 0.52693 0.58394 0.20529 1.177 0.079 1239.377 0.01950
-0.21164 0.13674 0.52760 0.58468 0.20718 0.909 0.070 1239.407 0.01953
-0.21191 0.13692 0.52828 0.58543 0.20907 0.927 0.070 1239.437 0.01955
-0.21218 0.13709 0.52895 0.58618 0.21095 0.969 0.072 1239.467 0.01958
-0.21245 0.13727 0.52962 0.58692 0.21284 0.975 0.072 1239.497 0.01960
-0.21272 0.13744 0.53030 0.58767 0.21473 0.947 0.071 1239.527 0.01962
-0.21299 0.13762 0.53097 0.58842 0.21662 1.068 0.076 1239.557 0.01965
-0.21326 0.13779 0.53165 0.58917 0.21850 1.047 0.075 1239.587 0.01967
-0.21354 0.13796 0.53232 0.58991 0.22039 1.068 0.076 1239.617 0.01970
-0.21381 0.13814 0.53300 0.59066 0.22228 0.926 0.070 1239.646 0.01972
-0.21408 0.13831 0.53367 0.59141 0.22417 0.926 0.070 1239.676 0.01975
-0.21435 0.13849 0.53434 0.59216 0.22605 0.849 0.067 1239.706 0.01977
-0.21462 0.13866 0.53502 0.59290 0.22794 1.011 0.074 1239.736 0.01980
-0.21489 0.13884 0.53569 0.59365 0.22983 0.915 0.070 1239.766 0.01982
-0.21516 0.13901 0.53637 0.59440 0.23172 1.003 0.073 1239.796 0.01985
-0.21543 0.13919 0.53704 0.59514 0.23361 0.951 0.071 1239.826 0.01987
-0.21570 0.13936 0.53772 0.59589 0.23549 0.909 0.070 1239.856 0.01989
-0.21597 0.13954 0.53839 0.59664 0.23738 1.023 0.074 1239.886 0.01992
-0.21624 0.13971 0.53907 0.59739 0.23927 0.906 0.070 1239.915 0.01994
-0.21651 0.13989 0.53974 0.59813 0.24116 0.942 0.071 1239.945 0.01997
-0.21678 0.14006 0.54041 0.59888 0.24305 0.910 0.070 1239.975 0.01999
-0.21705 0.14024 0.54109 0.59963 0.24494 1.013 0.074 1240.005 0.02002
-0.21732 0.14041 0.54176 0.60038 0.24682 0.984 0.073 1240.035 0.02004
-0.21759 0.14059 0.54244 0.60112 0.24871 1.028 0.074 1240.065 0.02007
-0.21786 0.14076 0.54311 0.60187 0.25060 1.092 0.076 1240.095 0.02009
-0.21813 0.14094 0.54379 0.60262 0.25249 0.966 0.072 1240.125 0.02012
-0.21841 0.14111 0.54446 0.60337 0.25438 0.983 0.073 1240.155 0.02014
-0.21868 0.14129 0.54514 0.60412 0.25627 0.940 0.071 1240.185 0.02017
-0.21895 0.14146 0.54581 0.60486 0.25816 1.022 0.074 1240.214 0.02019
-0.21922 0.14164 0.54649 0.60561 0.26005 1.042 0.075 1240.244 0.02021
-0.21949 0.14181 0.54716 0.60636 0.26194 0.990 0.073 1240.274 0.02024
-0.21976 0.14199 0.54784 0.60711 0.26382 0.829 0.067 1240.304 0.02026
-0.22003 0.14216 0.54851 0.60785 0.26571 0.930 0.071 1240.334 0.02029
-0.22030 0.14234 0.54919 0.60860 0.26760 0.899 0.069 1240.364 0.02031
-0.22057 0.14251 0.54986 0.60935 0.26949 0.914 0.070 1240.394 0.02034
-0.22084 0.14269 0.55054 0.61010 0.27138 0.770 0.064 1240.424 0.02036
-0.22111 0.14286 0.55121 0.61085 0.27327 0.883 0.069 1240.454 0.02039
-0.22138 0.14304 0.55189 0.61159 0.27516 0.808 0.066 1240.483 0.02041
-0.22165 0.14321 0.55256 0.61234 0.27705 0.635 0.058 1240.513 0.02044
-0.22192 0.14339 0.55324 0.61309 0.27894 0.592 0.056 1240.543 0.02046
-0.22220 0.14356 0.55391 0.61384 0.28083 0.452 0.055 1240.573 0.02049
-0.22247 0.14374 0.55459 0.61459 0.28272 0.377 0.051 1240.603 0.02051
-0.22274 0.14391 0.55526 0.61533 0.28461 0.308 0.050 1240.633 0.02053
-0.22301 0.14409 0.55594 0.61608 0.28650 0.341 0.052 1240.663 0.02056
-0.22328 0.14426 0.55661 0.61683 0.28839 0.276 0.048 1240.693 0.02058
-0.22355 0.14444 0.55729 0.61758 0.29028 0.345 0.053 1240.723 0.02061
-0.22382 0.14461 0.55796 0.61833 0.29217 0.389 0.055 1240.752 0.02063
-0.22409 0.14479 0.55864 0.61907 0.29406 0.437 0.055 1240.782 0.02066
-0.22436 0.14496 0.55931 0.61982 0.29595 0.517 0.055 1240.812 0.02068
-0.22463 0.14514 0.55999 0.62057 0.29784 0.652 0.059 1240.842 0.02071
-0.22490 0.14531 0.56066 0.62132 0.29973 0.605 0.057 1240.872 0.02073
-0.22517 0.14549 0.56134 0.62207 0.30162 0.912 0.070 1240.902 0.02076
-0.22545 0.14566 0.56201 0.62282 0.30351 0.893 0.069 1240.932 0.02078
-0.22572 0.14584 0.56269 0.62356 0.30540 0.756 0.064 1240.962 0.02080
-0.22599 0.14601 0.56336 0.62431 0.30729 0.891 0.069 1240.992 0.02083
-0.22626 0.14619 0.56404 0.62506 0.30918 0.830 0.067 1241.021 0.02085
-0.22653 0.14636 0.56471 0.62581 0.31108 1.056 0.075 1241.051 0.02088
-0.22680 0.14654 0.56539 0.62656 0.31297 0.842 0.067 1241.081 0.02090
-0.22707 0.14671 0.56606 0.62731 0.31486 0.852 0.070 1241.111 0.02093
-0.22734 0.14689 0.56674 0.62806 0.31675 1.104 0.081 1241.141 0.02095
-0.22761 0.14706 0.56742 0.62880 0.31864 0.953 0.071 1241.171 0.02098
-0.22788 0.14724 0.56809 0.62955 0.32053 1.001 0.073 1241.201 0.02100
-0.22816 0.14741 0.56877 0.63030 0.32242 0.975 0.072 1241.231 0.02103
-0.22843 0.14759 0.56944 0.63105 0.32431 0.935 0.071 1241.261 0.02105
-0.22870 0.14776 0.57012 0.63180 0.32620 1.062 0.075 1241.291 0.02108
-0.22897 0.14794 0.57079 0.63255 0.32810 1.092 0.077 1241.320 0.02110
-0.22924 0.14811 0.57147 0.63330 0.32999 1.037 0.075 1241.350 0.02112
-0.22951 0.14829 0.57214 0.63405 0.33188 1.035 0.074 1241.380 0.02115
-0.22978 0.14846 0.57282 0.63479 0.33377 1.017 0.074 1241.410 0.02117
-0.23005 0.14864 0.57350 0.63554 0.33566 0.981 0.073 1241.440 0.02120
-0.23032 0.14881 0.57417 0.63629 0.33755 1.079 0.076 1241.470 0.02122
-0.23059 0.14899 0.57485 0.63704 0.33945 0.982 0.073 1241.500 0.02125
-0.23087 0.14916 0.57552 0.63779 0.34134 0.998 0.073 1241.530 0.02127
-0.23114 0.14934 0.57620 0.63854 0.34323 0.945 0.071 1241.560 0.02130
-0.23141 0.14951 0.57688 0.63929 0.34512 0.854 0.068 1241.589 0.02132
-0.23168 0.14969 0.57755 0.64004 0.34701 0.810 0.066 1241.619 0.02135
-0.23195 0.14986 0.57823 0.64079 0.34891 0.918 0.070 1241.649 0.02137
-0.23222 0.15004 0.57890 0.64153 0.35080 0.778 0.065 1241.679 0.02139
-0.23249 0.15021 0.57958 0.64228 0.35269 0.777 0.065 1241.709 0.02142
-0.23276 0.15039 0.58025 0.64303 0.35458 0.821 0.066 1241.739 0.02144
-0.23303 0.15056 0.58093 0.64378 0.35648 0.784 0.065 1241.769 0.02147
-0.23331 0.15074 0.58161 0.64453 0.35837 0.917 0.070 1241.799 0.02149
-0.23358 0.15091 0.58228 0.64528 0.36026 0.922 0.070 1241.829 0.02152
-0.23385 0.15109 0.58296 0.64603 0.36215 0.739 0.063 1241.858 0.02154
-0.23412 0.15126 0.58363 0.64678 0.36405 0.497 0.058 1241.888 0.02157
-0.23439 0.15144 0.58431 0.64753 0.36594 0.443 0.055 1241.918 0.02159
-0.23466 0.15161 0.58499 0.64828 0.36783 0.298 0.050 1241.948 0.02162
-0.23493 0.15179 0.58566 0.64903 0.36973 0.206 0.043 1241.978 0.02164
-0.23520 0.15197 0.58634 0.64978 0.37162 0.067 0.029 1242.008 0.02167
-0.23548 0.15214 0.58702 0.65053 0.37351 0.072 0.030 1242.038 0.02169
-0.23575 0.15232 0.58769 0.65127 0.37541 0.029 0.023 1242.068 0.02171
-0.23602 0.15249 0.58837 0.65202 0.37730 0.035 0.024 1242.098 0.02174
-0.23629 0.15267 0.58904 0.65277 0.37919 0.030 0.023 1242.128 0.02176
-0.23656 0.15284 0.58972 0.65352 0.38109 0.067 0.029 1242.157 0.02179
-0.23683 0.15302 0.59040 0.65427 0.38298 0.035 0.025 1242.187 0.02181
-0.23710 0.15319 0.59107 0.65502 0.38487 0.088 0.032 1242.217 0.02184
-0.23737 0.15337 0.59175 0.65577 0.38677 0.056 0.028 1242.247 0.02186
-0.23765 0.15354 0.59243 0.65652 0.38866 0.148 0.038 1242.277 0.02189
-0.23792 0.15372 0.59310 0.65727 0.39055 0.202 0.043 1242.307 0.02191
-0.23819 0.15389 0.59378 0.65802 0.39245 0.341 0.053 1242.337 0.02194
-0.23846 0.15407 0.59446 0.65877 0.39434 0.491 0.054 1242.367 0.02196
-0.23873 0.15424 0.59513 0.65952 0.39623 0.604 0.057 1242.397 0.02199
-0.23900 0.15442 0.59581 0.66027 0.39813 0.620 0.058 1242.426 0.02201
-0.23927 0.15459 0.59649 0.66102 0.40002 0.625 0.058 1242.456 0.02203
-0.23955 0.15477 0.59716 0.66177 0.40192 0.588 0.056 1242.486 0.02206
-0.23982 0.15495 0.59784 0.66252 0.40381 0.287 0.049 1242.516 0.02208
-0.24009 0.15512 0.59851 0.66327 0.40570 0.227 0.045 1242.546 0.02211
-0.24036 0.15530 0.59919 0.66402 0.40760 0.178 0.041 1242.576 0.02213
-0.24063 0.15547 0.59987 0.66477 0.40949 0.142 0.038 1242.606 0.02216
-0.24090 0.15565 0.60054 0.66552 0.41139 0.152 0.039 1242.636 0.02218
-0.24117 0.15582 0.60122 0.66627 0.41328 0.244 0.046 1242.666 0.02221
-0.24145 0.15600 0.60190 0.66702 0.41518 0.438 0.055 1242.695 0.02223
-0.24172 0.15617 0.60258 0.66777 0.41707 0.718 0.062 1242.725 0.02226
-0.24199 0.15635 0.60325 0.66852 0.41897 0.767 0.064 1242.755 0.02228
-0.24226 0.15652 0.60393 0.66927 0.42086 0.761 0.064 1242.785 0.02230
-0.24253 0.15670 0.60461 0.67002 0.42276 0.896 0.069 1242.815 0.02233
-0.24280 0.15687 0.60528 0.67077 0.42465 0.896 0.069 1242.845 0.02235
-0.24307 0.15705 0.60596 0.67152 0.42655 0.825 0.067 1242.875 0.02238
-0.24335 0.15723 0.60664 0.67227 0.42844 1.107 0.077 1242.905 0.02240
-0.24362 0.15740 0.60731 0.67302 0.43034 0.954 0.072 1242.935 0.02243
-0.24389 0.15758 0.60799 0.67377 0.43223 0.982 0.073 1242.964 0.02245
-0.24416 0.15775 0.60867 0.67452 0.43413 0.990 0.073 1242.994 0.02248
-0.24443 0.15793 0.60934 0.67527 0.43602 0.903 0.070 1243.024 0.02250
-0.24470 0.15810 0.61002 0.67602 0.43792 1.001 0.073 1243.054 0.02253
-0.24498 0.15828 0.61070 0.67677 0.43981 0.999 0.073 1243.084 0.02255
-0.24525 0.15845 0.61138 0.67752 0.44171 0.929 0.071 1243.114 0.02258
-0.24552 0.15863 0.61205 0.67827 0.44360 1.096 0.077 1243.144 0.02260
-0.24579 0.15880 0.61273 0.67902 0.44550 1.015 0.074 1243.174 0.02262
-0.24606 0.15898 0.61341 0.67977 0.44740 0.994 0.073 1243.204 0.02265
-0.24633 0.15916 0.61408 0.68052 0.44929 1.027 0.074 1243.234 0.02267
-0.24661 0.15933 0.61476 0.68127 0.45119 1.047 0.075 1243.263 0.02270
-0.24688 0.15951 0.61544 0.68202 0.45308 1.033 0.074 1243.293 0.02272
-0.24715 0.15968 0.61612 0.68277 0.45498 0.957 0.072 1243.323 0.02275
-0.24742 0.15986 0.61679 0.68352 0.45688 0.849 0.068 1243.353 0.02277
-0.24769 0.16003 0.61747 0.68427 0.45877 1.006 0.074 1243.383 0.02280
-0.24796 0.16021 0.61815 0.68502 0.46067 1.054 0.075 1243.413 0.02282
-0.24824 0.16038 0.61882 0.68578 0.46256 0.953 0.072 1243.443 0.02285
-0.24851 0.16056 0.61950 0.68653 0.46446 1.047 0.075 1243.473 0.02287
-0.24878 0.16074 0.62018 0.68728 0.46636 1.037 0.075 1243.503 0.02289
-0.24905 0.16091 0.62086 0.68803 0.46825 1.002 0.073 1243.532 0.02292
-0.24932 0.16109 0.62153 0.68878 0.47015 0.940 0.071 1243.562 0.02294
-0.24959 0.16126 0.62221 0.68953 0.47205 1.113 0.077 1243.592 0.02297
-0.24987 0.16144 0.62289 0.69028 0.47394 1.122 0.078 1243.622 0.02299
-0.25014 0.16161 0.62357 0.69103 0.47584 1.157 0.079 1243.652 0.02302
-0.25041 0.16179 0.62424 0.69178 0.47774 1.043 0.075 1243.682 0.02304
-0.25068 0.16196 0.62492 0.69253 0.47963 1.102 0.077 1243.712 0.02307
-0.25095 0.16214 0.62560 0.69328 0.48153 1.092 0.077 1243.742 0.02309
-0.25122 0.16232 0.62628 0.69403 0.48343 1.027 0.074 1243.772 0.02312
-0.25150 0.16249 0.62695 0.69478 0.48532 0.920 0.070 1243.801 0.02314
-0.25177 0.16267 0.62763 0.69554 0.48722 1.093 0.077 1243.831 0.02317
-0.25204 0.16284 0.62831 0.69629 0.48912 0.969 0.072 1243.861 0.02319
-0.25231 0.16302 0.62899 0.69704 0.49102 1.031 0.074 1243.891 0.02321
-0.25258 0.16319 0.62967 0.69779 0.49291 0.970 0.072 1243.921 0.02324
-0.25286 0.16337 0.63034 0.69854 0.49481 0.983 0.073 1243.951 0.02326
-0.25313 0.16355 0.63102 0.69929 0.49671 1.010 0.074 1243.981 0.02329
-0.25340 0.16372 0.63170 0.70004 0.49861 0.893 0.069 1244.011 0.02331
-0.25367 0.16390 0.63238 0.70079 0.50050 0.810 0.066 1244.041 0.02334
-0.25394 0.16407 0.63305 0.70154 0.50240 0.986 0.073 1244.071 0.02336
-0.25422 0.16425 0.63373 0.70230 0.50430 0.917 0.070 1244.100 0.02339
-0.25449 0.16442 0.63441 0.70305 0.50620 0.975 0.072 1244.130 0.02341
-0.25476 0.16460 0.63509 0.70380 0.50809 1.110 0.077 1244.160 0.02344
-0.25503 0.16478 0.63577 0.70455 0.50999 1.061 0.075 1244.190 0.02346
-0.25530 0.16495 0.63644 0.70530 0.51189 1.000 0.073 1244.220 0.02348
-0.25558 0.16513 0.63712 0.70605 0.51379 1.136 0.078 1244.250 0.02351
-0.25585 0.16530 0.63780 0.70680 0.51569 1.091 0.077 1244.280 0.02353
-0.25612 0.16548 0.63848 0.70755 0.51759 1.073 0.076 1244.310 0.02356
-0.25639 0.16565 0.63916 0.70831 0.51948 0.996 0.073 1244.340 0.02358
-0.25666 0.16583 0.63983 0.70906 0.52138 1.124 0.078 1244.369 0.02361
-0.25694 0.16601 0.64051 0.70981 0.52328 0.983 0.073 1244.399 0.02363
-0.25721 0.16618 0.64119 0.71056 0.52518 0.935 0.071 1244.429 0.02366
-0.25748 0.16636 0.64187 0.71131 0.52708 0.994 0.073 1244.459 0.02368
-0.25775 0.16653 0.64255 0.71206 0.52898 0.967 0.072 1244.489 0.02371
-0.25802 0.16671 0.64322 0.71282 0.53087 0.906 0.070 1244.519 0.02373
-0.25830 0.16688 0.64390 0.71357 0.53277 0.956 0.072 1244.549 0.02376
-0.25857 0.16706 0.64458 0.71432 0.53467 0.984 0.073 1244.579 0.02378
