x y z dist_scaled dist_frac flux_norm sig_norm wavelength redshift
-0.12974 0.18536 0.44877 0.50258 0.00000 0.973 0.104 1236.115 0.01682
-0.12993 0.18564 0.44944 0.50333 0.00188 0.914 0.101 1236.145 0.01684
-0.13013 0.18591 0.45010 0.50407 0.00375 1.146 0.106 1236.175 0.01687
-0.13032 0.18619 0.45076 0.50481 0.00563 0.923 0.101 1236.205 0.01689
-0.13051 0.18646 0.45143 0.50556 0.00751 1.021 0.106 1236.235 0.01692
-0.13070 0.18674 0.45209 0.50630 0.00938 1.001 0.099 1236.265 0.01694
-0.13089 0.18701 0.45276 0.50705 0.01126 1.148 0.106 1236.295 0.01697
-0.13109 0.18728 0.45342 0.50779 0.01313 1.185 0.113 1236.325 0.01699
-0.13128 0.18756 0.45409 0.50853 0.01501 0.835 0.102 1236.355 0.01701
-0.13147 0.18783 0.45475 0.50928 0.01689 0.933 0.096 1236.384 0.01704
-0.13166 0.18811 0.45541 0.51002 0.01876 0.951 0.097 1236.414 0.01706
-0.13185 0.18838 0.45608 0.51077 0.02064 1.107 0.104 1236.444 0.01709
-0.13205 0.18866 0.45674 0.51151 0.02252 0.990 0.104 1236.474 0.01711
-0.13224 0.18893 0.45741 0.51225 0.02440 0.960 0.103 1236.504 0.01714
-0.13243 0.18921 0.45807 0.51300 0.02627 1.036 0.101 1236.534 0.01716
-0.13262 0.18948 0.45874 0.51374 0.02815 0.921 0.107 1236.564 0.01719
-0.13281 0.18975 0.45940 0.51449 0.03003 0.921 0.100 1236.594 0.01721
-0.13301 0.19003 0.46007 0.51523 0.03190 1.037 0.101 1236.623 0.01724
-0.13320 0.19030 0.46073 0.51597 0.03378 0.920 0.101 1236.653 0.01726
-0.13339 0.19058 0.46139 0.51672 0.03566 1.074 0.103 1236.683 0.01729
-0.13358 0.19085 0.46206 0.51746 0.03754 0.910 0.106 1236.713 0.01731
-0.13377 0.19113 0.46272 0.51821 0.03941 0.968 0.103 1236.743 0.01733
-0.13397 0.19140 0.46339 0.51895 0.04129 1.016 0.105 1236.773 0.01736
-0.13416 0.19168 0.46405 0.51970 0.04317 0.966 0.103 1236.803 0.01738
-0.13435 0.19195 0.46472 0.52044 0.04505 1.054 0.102 1236.833 0.01741
-0.13454 0.19222 0.46538 0.52118 0.04692 1.045 0.101 1236.862 0.01743
-0.13474 0.19250 0.46605 0.52193 0.04880 1.025 0.106 1236.892 0.01746
-0.13493 0.19277 0.46671 0.52267 0.05068 1.054 0.102 1236.922 0.01748
-0.13512 0.19305 0.46738 0.52342 0.05256 1.101 0.104 1236.952 0.01751
-0.13531 0.19332 0.46804 0.52416 0.05444 1.182 0.107 1236.982 0.01753
-0.13550 0.19360 0.46871 0.52491 0.05631 1.028 0.106 1237.012 0.01756
-0.13570 0.19387 0.46937 0.52565 0.05819 1.077 0.103 1237.042 0.01758
-0.13589 0.19415 0.47004 0.52640 0.06007 1.042 0.107 1237.072 0.01760
-0.13608 0.19442 0.47070 0.52714 0.06195 1.103 0.109 1237.101 0.01763
-0.13627 0.19470 0.47137 0.52788 0.06383 0.865 0.103 1237.131 0.01765
-0.13647 0.19497 0.47203 0.52863 0.06571 1.001 0.105 1237.161 0.01768
-0.13666 0.19525 0.47270 0.52937 0.06758 0.962 0.103 1237.191 0.01770
-0.13685 0.19552 0.47336 0.53012 0.06946 1.002 0.105 1237.221 0.01773
-0.13704 0.19579 0.47403 0.53086 0.07134 1.197 0.108 1237.251 0.01775
-0.13723 0.19607 0.47469 0.53161 0.07322 0.922 0.100 1237.281 0.01778
-0.13743 0.19634 0.47536 0.53235 0.07510 1.067 0.102 1237.311 0.01780
-0.13762 0.19662 0.47602 0.53310 0.07698 1.022 0.100 1237.341 0.01783
-0.13781 0.19689 0.47669 0.53384 0.07886 1.022 0.100 1237.370 0.01785
-0.13800 0.19717 0.47735 0.53459 0.08074 1.032 0.100 1237.400 0.01788
-0.13820 0.19744 0.47802 0.53533 0.08261 0.820 0.107 1237.430 0.01790
-0.13839 0.19772 0.47868 0.53608 0.08449 1.151 0.106 1237.460 0.01792
-0.13858 0.19799 0.47935 0.53682 0.08637 0.963 0.097 1237.490 0.01795
-0.13877 0.19827 0.48001 0.53757 0.08825 0.913 0.106 1237.520 0.01797
-0.13896 0.19854 0.48068 0.53831 0.09013 0.854 0.103 1237.550 0.01800
-0.13916 0.19882 0.48134 0.53906 0.09201 0.941 0.101 1237.580 0.01802
-0.13935 0.19909 0.48201 0.53980 0.09389 1.018 0.100 1237.609 0.01805
-0.13954 0.19937 0.48267 0.54055 0.09577 0.960 0.102 1237.639 0.01807
-0.13973 0.19964 0.48334 0.54129 0.09765 0.921 0.095 1237.669 0.01810
-0.13993 0.19992 0.48400 0.54204 0.09953 1.036 0.100 1237.699 0.01812
-0.14012 0.20019 0.48467 0.54278 0.10141 0.815 0.094 1237.729 0.01815
-0.14031 0.20047 0.48533 0.54353 0.10329 0.900 0.099 1237.759 0.01817
-0.14050 0.20074 0.48600 0.54427 0.10517 0.852 0.097 1237.789 0.01819
-0.14070 0.20102 0.48666 0.54502 0.10705 0.948 0.101 1237.819 0.01822
-0.14089 0.20129 0.48733 0.54576 0.10893 1.016 0.110 1237.848 0.01824
-0.14108 0.20156 0.48800 0.54651 0.11081 0.977 0.109 1237.878 0.01827
-0.14127 0.20184 0.48866 0.54725 0.11269 1.100 0.103 1237.908 0.01829
-0.14147 0.20211 0.48933 0.54800 0.11457 1.021 0.100 1237.938 0.01832
-0.14166 0.20239 0.48999 0.54874 0.11645 0.944 0.101 1237.968 0.01834
-0.14185 0.20266 0.49066 0.54949 0.11833 0.961 0.103 1237.998 0.01837
-0.14204 0.20294 0.49132 0.55024 0.12021 0.969 0.097 1238.028 0.01839
-0.14224 0.20321 0.49199 0.55098 0.12209 0.986 0.103 1238.058 0.01842
-0.14243 0.20349 0.49265 0.55173 0.12397 1.113 0.104 1238.087 0.01844
-0.14262 0.20376 0.49332 0.55247 0.12585 0.930 0.101 1238.117 0.01847
-0.14281 0.20404 0.49399 0.55322 0.12773 1.020 0.105 1238.147 0.01849
-0.14301 0.20431 0.49465 0.55396 0.12961 1.013 0.105 1238.177 0.01851
-0.14320 0.20459 0.49532 0.55471 0.13149 0.976 0.097 1238.207 0.01854
-0.14339 0.20486 0.49598 0.55545 0.13338 1.109 0.104 1238.237 0.01856
-0.14358 0.20514 0.49665 0.55620 0.13526 1.019 0.105 1238.267 0.01859
-0.14378 0.20541 0.49732 0.55695 0.13714 1.000 0.098 1238.297 0.01861
-0.14397 0.20569 0.49798 0.55769 0.13902 0.836 0.102 1238.327 0.01864
-0.14416 0.20596 0.49865 0.55844 0.14090 0.818 0.100 1238.356 0.01866
-0.14435 0.20624 0.49931 0.55918 0.14278 0.942 0.106 1238.386 0.01869
-0.14455 0.20651 0.49998 0.55993 0.14466 0.932 0.106 1238.416 0.01871
-0.14474 0.20679 0.50064 0.56067 0.14654 0.874 0.098 1238.446 0.01874
-0.14493 0.20706 0.50131 0.56142 0.14843 0.692 0.099 1238.476 0.01876
-0.14512 0.20734 0.50198 0.56217 0.15031 0.988 0.109 1238.506 0.01878
-0.14532 0.20761 0.50264 0.56291 0.15219 1.075 0.107 1238.536 0.01881
-0.14551 0.20789 0.50331 0.56366 0.15407 0.891 0.098 1238.566 0.01883
-0.14570 0.20817 0.50397 0.56440 0.15595 0.798 0.099 1238.595 0.01886
-0.14589 0.20844 0.50464 0.56515 0.15783 0.674 0.099 1238.625 0.01888
-0.14609 0.20872 0.50531 0.56590 0.15972 0.959 0.102 1238.655 0.01891
-0.14628 0.20899 0.50597 0.56664 0.16160 0.961 0.102 1238.685 0.01893
-0.14647 0.20927 0.50664 0.56739 0.16348 0.949 0.102 1238.715 0.01896
-0.14666 0.20954 0.50731 0.56813 0.16536 0.924 0.100 1238.745 0.01898
-0.14686 0.20982 0.50797 0.56888 0.16724 1.192 0.112 1238.775 0.01901
-0.14705 0.21009 0.50864 0.56963 0.16913 1.038 0.100 1238.805 0.01903
-0.14724 0.21037 0.50930 0.57037 0.17101 0.996 0.104 1238.834 0.01905
-0.14743 0.21064 0.50997 0.57112 0.17289 1.036 0.100 1238.864 0.01908
-0.14763 0.21092 0.51064 0.57186 0.17477 0.952 0.102 1238.894 0.01910
-0.14782 0.21119 0.51130 0.57261 0.17665 0.945 0.101 1238.924 0.01913
-0.14801 0.21147 0.51197 0.57336 0.17854 0.937 0.095 1238.954 0.01915
-0.14820 0.21174 0.51264 0.57410 0.18042 0.999 0.098 1238.984 0.01918
-0.14840 0.21202 0.51330 0.57485 0.18230 1.084 0.102 1239.014 0.01920
-0.14859 0.21229 0.51397 0.57560 0.18419 1.098 0.103 1239.044 0.01923
-0.14878 0.21257 0.51464 0.57634 0.18607 0.883 0.104 1239.073 0.01925
-0.14898 0.21284 0.51530 0.57709 0.18795 1.081 0.102 1239.103 0.01928
-0.14917 0.21312 0.51597 0.57784 0.18983 1.111 0.103 1239.133 0.01930
-0.14936 0.21339 0.51663 0.57858 0.19172 1.073 0.102 1239.163 0.01933
-0.14955 0.21367 0.51730 0.57933 0.19360 0.863 0.097 1239.193 0.01935
-0.14975 0.21394 0.51797 0.58007 0.19548 1.148 0.105 1239.223 0.01937
-0.14994 0.21422 0.51863 0.58082 0.19737 1.158 0.105 1239.253 0.01940
-0.15013 0.21450 0.51930 0.58157 0.19925 1.014 0.099 1239.283 0.01942
-0.15032 0.21477 0.51997 0.58231 0.20113 0.966 0.096 1239.313 0.01945
-0.15052 0.21505 0.52063 0.58306 0.20302 0.786 0.098 1239.342 0.01947
-0.15071 0.21532 0.52130 0.58381 0.20490 0.976 0.102 1239.372 0.01950
-0.15090 0.21560 0.52197 0.58455 0.20678 1.146 0.105 1239.402 0.01952
-0.15110 0.21587 0.52263 0.58530 0.20867 1.013 0.099 1239.432 0.01955
-0.15129 0.21615 0.52330 0.58605 0.21055 0.880 0.098 1239.462 0.01957
-0.15148 0.21642 0.52397 0.58679 0.21243 1.212 0.108 1239.492 0.01960
-0.15167 0.21670 0.52463 0.58754 0.21432 0.824 0.101 1239.522 0.01962
-0.15187 0.21697 0.52530 0.58829 0.21620 0.834 0.095 1239.552 0.01964
-0.15206 0.21725 0.52597 0.58904 0.21809 0.956 0.096 1239.581 0.01967
-0.15225 0.21753 0.52664 0.58978 0.21997 0.937 0.099 1239.611 0.01969
-0.15244 0.21780 0.52730 0.59053 0.22185 1.117 0.109 1239.641 0.01972
-0.15264 0.21808 0.52797 0.59128 0.22374 0.889 0.103 1239.671 0.01974
-0.15283 0.21835 0.52864 0.59202 0.22562 0.832 0.100 1239.701 0.01977
-0.15302 0.21863 0.52930 0.59277 0.22751 0.974 0.097 1239.731 0.01979
-0.15322 0.21890 0.52997 0.59352 0.22939 0.954 0.101 1239.761 0.01982
-0.15341 0.21918 0.53064 0.59426 0.23128 0.971 0.102 1239.791 0.01984
-0.15360 0.21945 0.53130 0.59501 0.23316 0.864 0.107 1239.820 0.01987
-0.15379 0.21973 0.53197 0.59576 0.23504 0.911 0.101 1239.850 0.01989
-0.15399 0.22000 0.53264 0.59650 0.23693 0.891 0.100 1239.880 0.01992
-0.15418 0.22028 0.53331 0.59725 0.23881 0.867 0.103 1239.910 0.01994
-0.15437 0.22056 0.53397 0.59800 0.24070 0.896 0.098 1239.940 0.01996
-0.15457 0.22083 0.53464 0.59875 0.24258 0.942 0.101 1239.970 0.01999
-0.15476 0.22111 0.53531 0.59949 0.24447 1.103 0.108 1240.000 0.02001
-0.15495 0.22138 0.53597 0.60024 0.24635 1.055 0.100 1240.030 0.02004
-0.15514 0.22166 0.53664 0.60099 0.24824 1.008 0.098 1240.059 0.02006
-0.15534 0.22193 0.53731 0.60174 0.25012 0.980 0.097 1240.089 0.02009
-0.15553 0.22221 0.53798 0.60248 0.25201 0.929 0.100 1240.119 0.02011
-0.15572 0.22248 0.53864 0.60323 0.25389 1.012 0.104 1240.149 0.02014
-0.15592 0.22276 0.53931 0.60398 0.25578 1.090 0.102 1240.179 0.02016
-0.15611 0.22304 0.53998 0.60472 0.25766 0.958 0.101 1240.209 0.02019
-0.15630 0.22331 0.54065 0.60547 0.25955 0.836 0.095 1240.239 0.02021
-0.15650 0.22359 0.54131 0.60622 0.26144 0.805 0.100 1240.269 0.02023
-0.15669 0.22386 0.54198 0.60697 0.26332 1.053 0.100 1240.299 0.02026
-0.15688 0.22414 0.54265 0.60771 0.26521 0.973 0.096 1240.328 0.02028
-0.15707 0.22441 0.54332 0.60846 0.26709 0.919 0.100 1240.358 0.02031
-0.15727 0.22469 0.54398 0.60921 0.26898 0.850 0.101 1240.388 0.02033
-0.15746 0.22497 0.54465 0.60996 0.27086 0.881 0.097 1240.418 0.02036
-0.15765 0.22524 0.54532 0.61070 0.27275 0.851 0.101 1240.448 0.02038
-0.15785 0.22552 0.54599 0.61145 0.27464 0.576 0.092 1240.478 0.02041
-0.15804 0.22579 0.54665 0.61220 0.27652 0.596 0.093 1240.508 0.02043
-0.15823 0.22607 0.54732 0.61295 0.27841 0.791 0.098 1240.538 0.02046
-0.15843 0.22634 0.54799 0.61370 0.28029 0.820 0.107 1240.567 0.02048
-0.15862 0.22662 0.54866 0.61444 0.28218 0.644 0.096 1240.597 0.02050
-0.15881 0.22690 0.54932 0.61519 0.28407 0.904 0.110 1240.627 0.02053
-0.15900 0.22717 0.54999 0.61594 0.28595 0.733 0.101 1240.657 0.02055
-0.15920 0.22745 0.55066 0.61669 0.28784 1.062 0.101 1240.687 0.02058
-0.15939 0.22772 0.55133 0.61743 0.28973 1.052 0.106 1240.717 0.02060
-0.15958 0.22800 0.55199 0.61818 0.29161 0.902 0.104 1240.747 0.02063
-0.15978 0.22828 0.55266 0.61893 0.29350 1.024 0.099 1240.777 0.02065
-0.15997 0.22855 0.55333 0.61968 0.29539 0.986 0.097 1240.806 0.02068
-0.16016 0.22883 0.55400 0.62043 0.29727 0.788 0.098 1240.836 0.02070
-0.16036 0.22910 0.55467 0.62117 0.29916 0.961 0.101 1240.866 0.02073
-0.16055 0.22938 0.55533 0.62192 0.30105 0.986 0.097 1240.896 0.02075
-0.16074 0.22965 0.55600 0.62267 0.30293 0.783 0.098 1240.926 0.02078
-0.16093 0.22993 0.55667 0.62342 0.30482 0.945 0.100 1240.956 0.02080
-0.16113 0.23021 0.55734 0.62417 0.30671 1.043 0.100 1240.986 0.02082
-0.16132 0.23048 0.55801 0.62491 0.30859 0.775 0.096 1241.016 0.02085
-0.16151 0.23076 0.55867 0.62566 0.31048 1.078 0.101 1241.045 0.02087
-0.16171 0.23103 0.55934 0.62641 0.31237 0.919 0.099 1241.075 0.02090
-0.16190 0.23131 0.56001 0.62716 0.31426 0.789 0.099 1241.105 0.02092
-0.16209 0.23159 0.56068 0.62791 0.31614 0.844 0.101 1241.135 0.02095
-0.16229 0.23186 0.56135 0.62866 0.31803 0.873 0.097 1241.165 0.02097
-0.16248 0.23214 0.56201 0.62940 0.31992 1.044 0.100 1241.195 0.02100
-0.16267 0.23241 0.56268 0.63015 0.32181 0.753 0.095 1241.225 0.02102
-0.16287 0.23269 0.56335 0.63090 0.32369 0.841 0.095 1241.255 0.02105
-0.16306 0.23297 0.56402 0.63165 0.32558 0.879 0.097 1241.285 0.02107
-0.16325 0.23324 0.56469 0.63240 0.32747 1.000 0.103 1241.314 0.02109
-0.16345 0.23352 0.56536 0.63315 0.32936 1.042 0.099 1241.344 0.02112
-0.16364 0.23379 0.56602 0.63389 0.33125 0.876 0.097 1241.374 0.02114
-0.16383 0.23407 0.56669 0.63464 0.33313 1.018 0.098 1241.404 0.02117
-0.16403 0.23435 0.56736 0.63539 0.33502 1.061 0.100 1241.434 0.02119
-0.16422 0.23462 0.56803 0.63614 0.33691 0.908 0.099 1241.464 0.02122
-0.16441 0.23490 0.56870 0.63689 0.33880 0.814 0.099 1241.494 0.02124
-0.16461 0.23517 0.56937 0.63764 0.34069 0.994 0.097 1241.524 0.02127
-0.16480 0.23545 0.57003 0.63838 0.34258 0.976 0.101 1241.553 0.02129
-0.16499 0.23573 0.57070 0.63913 0.34446 0.791 0.093 1241.583 0.02132
-0.16519 0.23600 0.57137 0.63988 0.34635 0.909 0.104 1241.613 0.02134
-0.16538 0.23628 0.57204 0.64063 0.34824 0.792 0.098 1241.643 0.02137
-0.16557 0.23656 0.57271 0.64138 0.35013 1.019 0.098 1241.673 0.02139
-0.16576 0.23683 0.57338 0.64213 0.35202 0.998 0.097 1241.703 0.02141
-0.16596 0.23711 0.57405 0.64288 0.35391 0.963 0.101 1241.733 0.02144
-0.16615 0.23738 0.57471 0.64363 0.35580 0.870 0.102 1241.763 0.02146
-0.16634 0.23766 0.57538 0.64437 0.35769 0.921 0.099 1241.792 0.02149
-0.16654 0.23794 0.57605 0.64512 0.35957 1.114 0.103 1241.822 0.02151
-0.16673 0.23821 0.57672 0.64587 0.36146 0.971 0.101 1241.852 0.02154
-0.16692 0.23849 0.57739 0.64662 0.36335 1.073 0.101 1241.882 0.02156
-0.16712 0.23876 0.57806 0.64737 0.36524 0.821 0.100 1241.912 0.02159
-0.16731 0.23904 0.57873 0.64812 0.36713 0.821 0.093 1241.942 0.02161
-0.16750 0.23932 0.57940 0.64887 0.36902 0.913 0.098 1241.972 0.02164
-0.16770 0.23959 0.58006 0.64962 0.37091 1.044 0.099 1242.002 0.02166
-0.16789 0.23987 0.58073 0.65037 0.37280 1.045 0.099 1242.031 0.02168
-0.16808 0.24015 0.58140 0.65111 0.37469 0.960 0.100 1242.061 0.02171
-0.16828 0.24042 0.58207 0.65186 0.37658 0.942 0.100 1242.091 0.02173
-0.16847 0.24070 0.58274 0.65261 0.37847 0.876 0.102 1242.121 0.02176
-0.16867 0.24097 0.58341 0.65336 0.38036 1.137 0.104 1242.151 0.02178
-0.16886 0.24125 0.58408 0.65411 0.38225 1.100 0.102 1242.181 0.02181
-0.16905 0.24153 0.58475 0.65486 0.38414 1.015 0.098 1242.211 0.02183
-0.16925 0.24180 0.58542 0.65561 0.38603 0.932 0.099 1242.241 0.02186
-0.16944 0.24208 0.58608 0.65636 0.38792 1.025 0.098 1242.271 0.02188
-0.16963 0.24236 0.58675 0.65711 0.38981 0.922 0.099 1242.300 0.02191
-0.16983 0.24263 0.58742 0.65786 0.39170 0.810 0.104 1242.330 0.02193
-0.17002 0.24291 0.58809 0.65861 0.39359 0.708 0.092 1242.360 0.02196
-0.17021 0.24319 0.58876 0.65936 0.39548 0.829 0.094 1242.390 0.02198
-0.17041 0.24346 0.58943 0.66011 0.39737 1.080 0.101 1242.420 0.02200
-0.17060 0.24374 0.59010 0.66085 0.39926 1.081 0.106 1242.450 0.02203
-0.17079 0.24401 0.59077 0.66160 0.40115 0.827 0.100 1242.480 0.02205
-0.17099 0.24429 0.59144 0.66235 0.40304 0.884 0.097 1242.510 0.02208
-0.17118 0.24457 0.59211 0.66310 0.40493 0.911 0.098 1242.539 0.02210
-0.17137 0.24484 0.59278 0.66385 0.40682 0.884 0.097 1242.569 0.02213
-0.17157 0.24512 0.59344 0.66460 0.40871 0.799 0.098 1242.599 0.02215
-0.17176 0.24540 0.59411 0.66535 0.41060 1.013 0.103 1242.629 0.02218
-0.17195 0.24567 0.59478 0.66610 0.41249 0.938 0.100 1242.659 0.02220
-0.17215 0.24595 0.59545 0.66685 0.41438 0.762 0.102 1242.689 0.02223
-0.17234 0.24623 0.59612 0.66760 0.41628 0.919 0.099 1242.719 0.02225
-0.17253 0.24650 0.59679 0.66835 0.41817 0.761 0.096 1242.749 0.02227
-0.17273 0.24678 0.59746 0.66910 0.42006 1.077 0.101 1242.778 0.02230
-0.17292 0.24706 0.59813 0.66985 0.42195 0.956 0.100 1242.808 0.02232
-0.17311 0.24733 0.59880 0.67060 0.42384 0.994 0.097 1242.838 0.02235
-0.17331 0.24761 0.59947 0.67135 0.42573 1.032 0.099 1242.868 0.02237
-0.17350 0.24789 0.60014 0.67210 0.42762 0.855 0.095 1242.898 0.02240
-0.17370 0.24816 0.60081 0.67285 0.42951 0.966 0.095 1242.928 0.02242
-0.17389 0.24844 0.60148 0.67360 0.43141 0.920 0.098 1242.958 0.02245
-0.17408 0.24872 0.60215 0.67435 0.43330 1.013 0.098 1242.988 0.02247
-0.17428 0.24899 0.60282 0.67510 0.43519 0.938 0.094 1243.017 0.02250
-0.17447 0.24927 0.60349 0.67585 0.43708 0.883 0.097 1243.047 0.02252
-0.17466 0.24954 0.60416 0.67660 0.43897 1.273 0.109 1243.077 0.02254
-0.17486 0.24982 0.60483 0.67735 0.44087 0.836 0.094 1243.107 0.02257
-0.17505 0.25010 0.60550 0.67810 0.44276 0.872 0.096 1243.137 0.02259
-0.17524 0.25037 0.60617 0.67885 0.44465 1.086 0.101 1243.167 0.02262
-0.17544 0.25065 0.60684 0.67960 0.44654 0.826 0.093 1243.197 0.02264
-0.17563 0.25093 0.60751 0.68035 0.44843 0.872 0.096 1243.227 0.02267
-0.17583 0.25120 0.60818 0.68110 0.45033 0.770 0.102 1243.257 0.02269
-0.17602 0.25148 0.60884 0.68185 0.45222 0.789 0.097 1243.286 0.02272
-0.17621 0.25176 0.60951 0.68260 0.45411 0.928 0.093 1243.316 0.02274
-0.17641 0.25203 0.61018 0.68335 0.45600 1.058 0.100 1243.346 0.02277
-0.17660 0.25231 0.61085 0.68410 0.45790 1.048 0.099 1243.376 0.02279
-0.17679 0.25259 0.61152 0.68485 0.45979 0.899 0.097 1243.406 0.02282
-0.17699 0.25286 0.61219 0.68560 0.46168 0.889 0.097 1243.436 0.02284
-0.17718 0.25314 0.61286 0.68635 0.46357 0.956 0.100 1243.466 0.02286
-0.17737 0.25342 0.61353 0.68710 0.46547 0.973 0.096 1243.496 0.02289
-0.17757 0.25370 0.61420 0.68785 0.46736 1.097 0.102 1243.525 0.02291
-0.17776 0.25397 0.61487 0.68860 0.46925 0.952 0.100 1243.555 0.02294
-0.17796 0.25425 0.61554 0.68935 0.47114 0.944 0.094 1243.585 0.02296
-0.17815 0.25453 0.61621 0.69010 0.47304 0.961 0.095 1243.615 0.02299
-0.17834 0.25480 0.61688 0.69085 0.47493 1.042 0.104 1243.645 0.02301
-0.17854 0.25508 0.61755 0.69160 0.47682 0.787 0.097 1243.675 0.02304
-0.17873 0.25536 0.61822 0.69235 0.47872 1.091 0.101 1243.705 0.02306
-0.17892 0.25563 0.61890 0.69310 0.48061 1.003 0.097 1243.735 0.02309
-0.17912 0.25591 0.61957 0.69385 0.48250 0.938 0.099 1243.764 0.02311
-0.17931 0.25619 0.62024 0.69461 0.48440 1.044 0.099 1243.794 0.02313
-0.17951 0.25646 0.62091 0.69536 0.48629 0.943 0.100 1243.824 0.02316
-0.17970 0.25674 0.62158 0.69611 0.48818 1.022 0.103 1243.854 0.02318
-0.17989 0.25702 0.62225 0.69686 0.49008 1.154 0.104 1243.884 0.02321
-0.18009 0.25729 0.62292 0.69761 0.49197 1.075 0.106 1243.914 0.02323
-0.18028 0.25757 0.62359 0.69836 0.49387 0.897 0.098 1243.944 0.02326
-0.18047 0.25785 0.62426 0.69911 0.49576 1.011 0.103 1243.974 0.02328
-0.18067 0.25812 0.62493 0.69986 0.49765 0.912 0.092 1244.003 0.02331
-0.18086 0.25840 0.62560 0.70061 0.49955 0.900 0.098 1244.033 0.02333
-0.18106 0.25868 0.62627 0.70136 0.50144 0.971 0.101 1244.063 0.02336
-0.18125 0.25896 0.62694 0.70211 0.50334 0.914 0.093 1244.093 0.02338
-0.18144 0.25923 0.62761 0.70286 0.50523 0.947 0.094 1244.123 0.02341
-0.18164 0.25951 0.62828 0.70361 0.50712 1.055 0.099 1244.153 0.02343
-0.18183 0.25979 0.62895 0.70437 0.50902 1.109 0.102 1244.183 0.02345
-0.18203 0.26006 0.62962 0.70512 0.51091 1.127 0.103 1244.213 0.02348
-0.18222 0.26034 0.63029 0.70587 0.51281 0.940 0.099 1244.243 0.02350
-0.18241 0.26062 0.63096 0.70662 0.51470 0.784 0.097 1244.272 0.02353
-0.18261 0.26089 0.63163 0.70737 0.51660 1.016 0.098 1244.302 0.02355
-0.18280 0.26117 0.63230 0.70812 0.51849 1.053 0.099 1244.332 0.02358
-0.18299 0.26145 0.63297 0.70887 0.52039 1.044 0.099 1244.362 0.02360
-0.18319 0.26172 0.63365 0.70962 0.52228 0.951 0.105 1244.392 0.02363
-0.18338 0.26200 0.63432 0.71037 0.52418 0.831 0.094 1244.422 0.02365
-0.18358 0.26228 0.63499 0.71112 0.52607 0.952 0.094 1244.452 0.02368
-0.18377 0.26256 0.63566 0.71188 0.52797 0.924 0.099 1244.482 0.02370
-0.18396 0.26283 0.63633 0.71263 0.52986 0.757 0.101 1244.511 0.02372
-0.18416 0.26311 0.63700 0.71338 0.53176 0.729 0.099 1244.541 0.02375
-0.18435 0.26339 0.63767 0.71413 0.53365 0.904 0.097 1244.571 0.02377
