x y z dist_scaled dist_frac flux_norm wavelength redshift
-0.02579 -0.12695 0.48560 0.50258 0.00000 1.113 1236.115 0.01682
-0.02583 -0.12714 0.48632 0.50333 0.00188 0.958 1236.145 0.01684
-0.02586 -0.12732 0.48704 0.50407 0.00375 0.834 1236.175 0.01687
-0.02590 -0.12751 0.48776 0.50481 0.00563 0.804 1236.205 0.01689
-0.02594 -0.12770 0.48848 0.50556 0.00751 1.020 1236.235 0.01692
-0.02598 -0.12789 0.48919 0.50630 0.00938 1.099 1236.265 0.01694
-0.02602 -0.12807 0.48991 0.50705 0.01126 0.788 1236.295 0.01697
-0.02606 -0.12826 0.49063 0.50779 0.01313 1.114 1236.325 0.01699
-0.02609 -0.12845 0.49135 0.50853 0.01501 0.928 1236.355 0.01701
-0.02613 -0.12864 0.49207 0.50928 0.01689 0.867 1236.384 0.01704
-0.02617 -0.12883 0.49279 0.51002 0.01876 1.022 1236.414 0.01706
-0.02621 -0.12901 0.49351 0.51077 0.02064 0.837 1236.444 0.01709
-0.02625 -0.12920 0.49423 0.51151 0.02252 0.961 1236.474 0.01711
-0.02628 -0.12939 0.49495 0.51225 0.02440 1.070 1236.504 0.01714
-0.02632 -0.12958 0.49566 0.51300 0.02627 1.179 1236.534 0.01716
-0.02636 -0.12977 0.49638 0.51374 0.02815 0.761 1236.564 0.01719
-0.02640 -0.12995 0.49710 0.51449 0.03003 1.009 1236.594 0.01721
-0.02644 -0.13014 0.49782 0.51523 0.03190 1.226 1236.623 0.01724
-0.02648 -0.13033 0.49854 0.51597 0.03378 1.009 1236.653 0.01726
-0.02651 -0.13052 0.49926 0.51672 0.03566 1.041 1236.683 0.01729
-0.02655 -0.13071 0.49998 0.51746 0.03754 0.978 1236.713 0.01731
-0.02659 -0.13089 0.50070 0.51821 0.03941 1.102 1236.743 0.01733
-0.02663 -0.13108 0.50142 0.51895 0.04129 0.979 1236.773 0.01736
-0.02667 -0.13127 0.50214 0.51970 0.04317 1.071 1236.803 0.01738
-0.02670 -0.13146 0.50285 0.52044 0.04505 1.102 1236.833 0.01741
-0.02674 -0.13165 0.50357 0.52118 0.04692 1.071 1236.862 0.01743
-0.02678 -0.13183 0.50429 0.52193 0.04880 1.039 1236.892 0.01746
-0.02682 -0.13202 0.50501 0.52267 0.05068 1.133 1236.922 0.01748
-0.02686 -0.13221 0.50573 0.52342 0.05256 1.151 1236.952 0.01751
-0.02690 -0.13240 0.50645 0.52416 0.05444 0.807 1236.982 0.01753
-0.02693 -0.13259 0.50717 0.52491 0.05631 0.829 1237.012 0.01756
-0.02697 -0.13277 0.50789 0.52565 0.05819 0.896 1237.042 0.01758
-0.02701 -0.13296 0.50861 0.52640 0.06007 1.212 1237.072 0.01760
-0.02705 -0.13315 0.50933 0.52714 0.06195 0.980 1237.101 0.01763
-0.02709 -0.13334 0.51005 0.52788 0.06383 0.754 1237.131 0.01765
-0.02712 -0.13353 0.51077 0.52863 0.06571 0.894 1237.161 0.01768
-0.02716 -0.13371 0.51149 0.52937 0.06758 1.021 1237.191 0.01770
-0.02720 -0.13390 0.51221 0.53012 0.06946 1.068 1237.221 0.01773
-0.02724 -0.13409 0.51293 0.53086 0.07134 0.803 1237.251 0.01775
-0.02728 -0.13428 0.51365 0.53161 0.07322 0.725 1237.281 0.01778
-0.02732 -0.13447 0.51437 0.53235 0.07510 0.807 1237.311 0.01780
-0.02735 -0.13466 0.51509 0.53310 0.07698 0.903 1237.341 0.01783
-0.02739 -0.13484 0.51581 0.53384 0.07886 1.092 1237.370 0.01785
-0.02743 -0.13503 0.51652 0.53459 0.08074 0.821 1237.400 0.01788
-0.02747 -0.13522 0.51724 0.53533 0.08261 0.964 1237.430 0.01790
-0.02751 -0.13541 0.51796 0.53608 0.08449 1.026 1237.460 0.01792
-0.02754 -0.13560 0.51868 0.53682 0.08637 1.288 1237.490 0.01795
-0.02758 -0.13578 0.51940 0.53757 0.08825 1.145 1237.520 0.01797
-0.02762 -0.13597 0.52012 0.53831 0.09013 0.975 1237.550 0.01800
-0.02766 -0.13616 0.52084 0.53906 0.09201 1.083 1237.580 0.01802
-0.02770 -0.13635 0.52156 0.53980 0.09389 0.949 1237.609 0.01805
-0.02774 -0.13654 0.52228 0.54055 0.09577 0.908 1237.639 0.01807
-0.02777 -0.13673 0.52300 0.54129 0.09765 0.928 1237.669 0.01810
-0.02781 -0.13691 0.52372 0.54204 0.09953 1.026 1237.699 0.01812
-0.02785 -0.13710 0.52444 0.54278 0.10141 1.160 1237.729 0.01815
-0.02789 -0.13729 0.52516 0.54353 0.10329 0.923 1237.759 0.01817
-0.02793 -0.13748 0.52588 0.54427 0.10517 0.909 1237.789 0.01819
-0.02797 -0.13767 0.52660 0.54502 0.10705 0.824 1237.819 0.01822
-0.02800 -0.13785 0.52732 0.54576 0.10893 1.074 1237.848 0.01824
-0.02804 -0.13804 0.52804 0.54651 0.11081 0.945 1237.878 0.01827
-0.02808 -0.13823 0.52876 0.54725 0.11269 1.099 1237.908 0.01829
-0.02812 -0.13842 0.52948 0.54800 0.11457 1.019 1237.938 0.01832
-0.02816 -0.13861 0.53020 0.54874 0.11645 1.069 1237.968 0.01834
-0.02819 -0.13880 0.53092 0.54949 0.11833 1.063 1237.998 0.01837
-0.02823 -0.13898 0.53164 0.55024 0.12021 0.940 1238.028 0.01839
-0.02827 -0.13917 0.53236 0.55098 0.12209 1.115 1238.058 0.01842
-0.02831 -0.13936 0.53308 0.55173 0.12397 1.157 1238.087 0.01844
-0.02835 -0.13955 0.53381 0.55247 0.12585 1.072 1238.117 0.01847
-0.02839 -0.13974 0.53453 0.55322 0.12773 0.932 1238.147 0.01849
-0.02842 -0.13993 0.53525 0.55396 0.12961 0.879 1238.177 0.01851
-0.02846 -0.14011 0.53597 0.55471 0.13149 0.972 1238.207 0.01854
-0.02850 -0.14030 0.53669 0.55545 0.13338 1.050 1238.237 0.01856
-0.02854 -0.14049 0.53741 0.55620 0.13526 0.958 1238.267 0.01859
-0.02858 -0.14068 0.53813 0.55695 0.13714 0.880 1238.297 0.01861
-0.02862 -0.14087 0.53885 0.55769 0.13902 1.035 1238.327 0.01864
-0.02865 -0.14106 0.53957 0.55844 0.14090 1.190 1238.356 0.01866
-0.02869 -0.14124 0.54029 0.55918 0.14278 0.834 1238.386 0.01869
-0.02873 -0.14143 0.54101 0.55993 0.14466 1.081 1238.416 0.01871
-0.02877 -0.14162 0.54173 0.56067 0.14654 1.050 1238.446 0.01874
-0.02881 -0.14181 0.54245 0.56142 0.14843 1.037 1238.476 0.01876
-0.02885 -0.14200 0.54317 0.56217 0.15031 1.021 1238.506 0.01878
-0.02888 -0.14219 0.54389 0.56291 0.15219 1.207 1238.536 0.01881
-0.02892 -0.14237 0.54461 0.56366 0.15407 0.975 1238.566 0.01883
-0.02896 -0.14256 0.54533 0.56440 0.15595 0.836 1238.595 0.01886
-0.02900 -0.14275 0.54605 0.56515 0.15783 1.114 1238.625 0.01888
-0.02904 -0.14294 0.54678 0.56590 0.15972 0.898 1238.655 0.01891
-0.02907 -0.14313 0.54750 0.56664 0.16160 0.758 1238.685 0.01893
-0.02911 -0.14332 0.54822 0.56739 0.16348 0.836 1238.715 0.01896
-0.02915 -0.14351 0.54894 0.56813 0.16536 0.960 1238.745 0.01898
-0.02919 -0.14369 0.54966 0.56888 0.16724 0.851 1238.775 0.01901
-0.02923 -0.14388 0.55038 0.56963 0.16913 0.743 1238.805 0.01903
-0.02927 -0.14407 0.55110 0.57037 0.17101 1.068 1238.834 0.01905
-0.02930 -0.14426 0.55182 0.57112 0.17289 0.774 1238.864 0.01908
-0.02934 -0.14445 0.55254 0.57186 0.17477 0.852 1238.894 0.01910
-0.02938 -0.14464 0.55326 0.57261 0.17665 0.866 1238.924 0.01913
-0.02942 -0.14482 0.55398 0.57336 0.17854 0.865 1238.954 0.01915
-0.02946 -0.14501 0.55471 0.57410 0.18042 1.036 1238.984 0.01918
-0.02950 -0.14520 0.55543 0.57485 0.18230 1.004 1239.014 0.01920
-0.02953 -0.14539 0.55615 0.57560 0.18419 0.696 1239.044 0.01923
-0.02957 -0.14558 0.55687 0.57634 0.18607 0.927 1239.073 0.01925
-0.02961 -0.14577 0.55759 0.57709 0.18795 0.943 1239.103 0.01928
-0.02965 -0.14596 0.55831 0.57784 0.18983 0.943 1239.133 0.01930
-0.02969 -0.14614 0.55903 0.57858 0.19172 0.911 1239.163 0.01933
-0.02973 -0.14633 0.55975 0.57933 0.19360 0.897 1239.193 0.01935
-0.02976 -0.14652 0.56048 0.58007 0.19548 1.097 1239.223 0.01937
-0.02980 -0.14671 0.56120 0.58082 0.19737 1.157 1239.253 0.01940
-0.02984 -0.14690 0.56192 0.58157 0.19925 0.865 1239.283 0.01942
-0.02988 -0.14709 0.56264 0.58231 0.20113 1.003 1239.313 0.01945
-0.02992 -0.14728 0.56336 0.58306 0.20302 0.849 1239.342 0.01947
-0.02996 -0.14746 0.56408 0.58381 0.20490 0.912 1239.372 0.01950
-0.02999 -0.14765 0.56480 0.58455 0.20678 0.696 1239.402 0.01952
-0.03003 -0.14784 0.56553 0.58530 0.20867 0.758 1239.432 0.01955
-0.03007 -0.14803 0.56625 0.58605 0.21055 0.634 1239.462 0.01957
-0.03011 -0.14822 0.56697 0.58679 0.21243 0.371 1239.492 0.01960
-0.03015 -0.14841 0.56769 0.58754 0.21432 0.356 1239.522 0.01962
-0.03019 -0.14860 0.56841 0.58829 0.21620 0.263 1239.552 0.01964
-0.03022 -0.14878 0.56913 0.58904 0.21809 0.247 1239.581 0.01967
-0.03026 -0.14897 0.56985 0.58978 0.21997 0.231 1239.611 0.01969
-0.03030 -0.14916 0.57058 0.59053 0.22185 0.170 1239.641 0.01972
-0.03034 -0.14935 0.57130 0.59128 0.22374 0.309 1239.671 0.01974
-0.03038 -0.14954 0.57202 0.59202 0.22562 0.233 1239.701 0.01977
-0.03042 -0.14973 0.57274 0.59277 0.22751 0.372 1239.731 0.01979
-0.03045 -0.14992 0.57346 0.59352 0.22939 0.495 1239.761 0.01982
-0.03049 -0.15011 0.57418 0.59426 0.23128 0.479 1239.791 0.01984
-0.03053 -0.15029 0.57491 0.59501 0.23316 0.557 1239.820 0.01987
-0.03057 -0.15048 0.57563 0.59576 0.23504 0.649 1239.850 0.01989
-0.03061 -0.15067 0.57635 0.59650 0.23693 0.803 1239.880 0.01992
-0.03065 -0.15086 0.57707 0.59725 0.23881 1.034 1239.910 0.01994
-0.03068 -0.15105 0.57779 0.59800 0.24070 1.051 1239.940 0.01996
-0.03072 -0.15124 0.57852 0.59875 0.24258 1.096 1239.970 0.01999
-0.03076 -0.15143 0.57924 0.59949 0.24447 1.174 1240.000 0.02001
-0.03080 -0.15161 0.57996 0.60024 0.24635 1.111 1240.030 0.02004
-0.03084 -0.15180 0.58068 0.60099 0.24824 1.081 1240.059 0.02006
-0.03088 -0.15199 0.58140 0.60174 0.25012 1.158 1240.089 0.02009
-0.03091 -0.15218 0.58213 0.60248 0.25201 0.911 1240.119 0.02011
-0.03095 -0.15237 0.58285 0.60323 0.25389 0.974 1240.149 0.02014
-0.03099 -0.15256 0.58357 0.60398 0.25578 1.251 1240.179 0.02016
-0.03103 -0.15275 0.58429 0.60472 0.25766 1.035 1240.209 0.02019
-0.03107 -0.15294 0.58501 0.60547 0.25955 1.117 1240.239 0.02021
-0.03111 -0.15312 0.58574 0.60622 0.26144 0.979 1240.269 0.02023
-0.03114 -0.15331 0.58646 0.60697 0.26332 0.690 1240.299 0.02026
-0.03118 -0.15350 0.58718 0.60771 0.26521 0.965 1240.328 0.02028
-0.03122 -0.15369 0.58790 0.60846 0.26709 0.932 1240.358 0.02031
-0.03126 -0.15388 0.58863 0.60921 0.26898 0.824 1240.388 0.02033
-0.03130 -0.15407 0.58935 0.60996 0.27086 1.001 1240.418 0.02036
-0.03134 -0.15426 0.59007 0.61070 0.27275 0.862 1240.448 0.02038
-0.03137 -0.15445 0.59079 0.61145 0.27464 0.723 1240.478 0.02041
-0.03141 -0.15464 0.59151 0.61220 0.27652 1.194 1240.508 0.02043
-0.03145 -0.15482 0.59224 0.61295 0.27841 1.132 1240.538 0.02046
-0.03149 -0.15501 0.59296 0.61370 0.28029 1.110 1240.567 0.02048
-0.03153 -0.15520 0.59368 0.61444 0.28218 0.820 1240.597 0.02050
-0.03157 -0.15539 0.59440 0.61519 0.28407 0.995 1240.627 0.02053
-0.03160 -0.15558 0.59513 0.61594 0.28595 1.215 1240.657 0.02055
-0.03164 -0.15577 0.59585 0.61669 0.28784 0.879 1240.687 0.02058
-0.03168 -0.15596 0.59657 0.61743 0.28973 0.958 1240.717 0.02060
-0.03172 -0.15615 0.59729 0.61818 0.29161 1.124 1240.747 0.02063
-0.03176 -0.15634 0.59802 0.61893 0.29350 1.000 1240.777 0.02065
-0.03180 -0.15652 0.59874 0.61968 0.29539 0.938 1240.806 0.02068
-0.03183 -0.15671 0.59946 0.62043 0.29727 0.983 1240.836 0.02070
-0.03187 -0.15690 0.60019 0.62117 0.29916 0.922 1240.866 0.02073
-0.03191 -0.15709 0.60091 0.62192 0.30105 0.906 1240.896 0.02075
-0.03195 -0.15728 0.60163 0.62267 0.30293 0.815 1240.926 0.02078
-0.03199 -0.15747 0.60235 0.62342 0.30482 0.891 1240.956 0.02080
-0.03203 -0.15766 0.60308 0.62417 0.30671 1.105 1240.986 0.02082
-0.03206 -0.15785 0.60380 0.62491 0.30859 0.922 1241.016 0.02085
-0.03210 -0.15804 0.60452 0.62566 0.31048 0.952 1241.045 0.02087
-0.03214 -0.15823 0.60525 0.62641 0.31237 1.135 1241.075 0.02090
-0.03218 -0.15841 0.60597 0.62716 0.31426 1.012 1241.105 0.02092
-0.03222 -0.15860 0.60669 0.62791 0.31614 1.043 1241.135 0.02095
-0.03226 -0.15879 0.60741 0.62866 0.31803 0.935 1241.165 0.02097
-0.03230 -0.15898 0.60814 0.62940 0.31992 0.920 1241.195 0.02100
-0.03233 -0.15917 0.60886 0.63015 0.32181 0.797 1241.225 0.02102
-0.03237 -0.15936 0.60958 0.63090 0.32369 0.812 1241.255 0.02105
-0.03241 -0.15955 0.61031 0.63165 0.32558 0.875 1241.285 0.02107
-0.03245 -0.15974 0.61103 0.63240 0.32747 1.043 1241.314 0.02109
-0.03249 -0.15993 0.61175 0.63315 0.32936 0.737 1241.344 0.02112
-0.03253 -0.16012 0.61248 0.63389 0.33125 1.027 1241.374 0.02114
-0.03256 -0.16030 0.61320 0.63464 0.33313 0.906 1241.404 0.02117
-0.03260 -0.16049 0.61392 0.63539 0.33502 0.691 1241.434 0.02119
-0.03264 -0.16068 0.61464 0.63614 0.33691 0.950 1241.464 0.02122
-0.03268 -0.16087 0.61537 0.63689 0.33880 0.829 1241.494 0.02124
-0.03272 -0.16106 0.61609 0.63764 0.34069 0.752 1241.524 0.02127
-0.03276 -0.16125 0.61681 0.63838 0.34258 0.844 1241.553 0.02129
-0.03279 -0.16144 0.61754 0.63913 0.34446 0.937 1241.583 0.02132
-0.03283 -0.16163 0.61826 0.63988 0.34635 0.983 1241.613 0.02134
-0.03287 -0.16182 0.61898 0.64063 0.34824 0.860 1241.643 0.02137
-0.03291 -0.16201 0.61971 0.64138 0.35013 1.166 1241.673 0.02139
-0.03295 -0.16220 0.62043 0.64213 0.35202 1.196 1241.703 0.02141
-0.03299 -0.16238 0.62116 0.64288 0.35391 1.012 1241.733 0.02144
-0.03302 -0.16257 0.62188 0.64363 0.35580 1.042 1241.763 0.02146
-0.03306 -0.16276 0.62260 0.64437 0.35769 0.904 1241.792 0.02149
-0.03310 -0.16295 0.62333 0.64512 0.35957 0.996 1241.822 0.02151
-0.03314 -0.16314 0.62405 0.64587 0.36146 1.042 1241.852 0.02154
-0.03318 -0.16333 0.62477 0.64662 0.36335 1.164 1241.882 0.02156
-0.03322 -0.16352 0.62550 0.64737 0.36524 0.782 1241.912 0.02159
-0.03326 -0.16371 0.62622 0.64812 0.36713 1.087 1241.942 0.02161
-0.03329 -0.16390 0.62694 0.64887 0.36902 1.041 1241.972 0.02164
-0.03333 -0.16409 0.62767 0.64962 0.37091 1.224 1242.002 0.02166
-0.03337 -0.16428 0.62839 0.65037 0.37280 1.010 1242.031 0.02168
-0.03341 -0.16447 0.62911 0.65111 0.37469 0.934 1242.061 0.02171
-0.03345 -0.16465 0.62984 0.65186 0.37658 0.934 1242.091 0.02173
-0.03349 -0.16484 0.63056 0.65261 0.37847 0.934 1242.121 0.02176
-0.03352 -0.16503 0.63129 0.65336 0.38036 0.857 1242.151 0.02178
-0.03356 -0.16522 0.63201 0.65411 0.38225 0.887 1242.181 0.02181
-0.03360 -0.16541 0.63273 0.65486 0.38414 1.040 1242.211 0.02183
-0.03364 -0.16560 0.63346 0.65561 0.38603 1.056 1242.241 0.02186
-0.03368 -0.16579 0.63418 0.65636 0.38792 0.994 1242.271 0.02188
-0.03372 -0.16598 0.63491 0.65711 0.38981 1.192 1242.300 0.02191
-0.03376 -0.16617 0.63563 0.65786 0.39170 1.024 1242.330 0.02193
-0.03379 -0.16636 0.63635 0.65861 0.39359 1.009 1242.360 0.02196
-0.03383 -0.16655 0.63708 0.65936 0.39548 1.116 1242.390 0.02198
-0.03387 -0.16674 0.63780 0.66011 0.39737 0.948 1242.420 0.02200
-0.03391 -0.16693 0.63853 0.66085 0.39926 1.253 1242.450 0.02203
-0.03395 -0.16711 0.63925 0.66160 0.40115 0.812 1242.480 0.02205
-0.03399 -0.16730 0.63997 0.66235 0.40304 1.041 1242.510 0.02208
-0.03402 -0.16749 0.64070 0.66310 0.40493 1.164 1242.539 0.02210
-0.03406 -0.16768 0.64142 0.66385 0.40682 1.070 1242.569 0.02213
-0.03410 -0.16787 0.64215 0.66460 0.40871 1.028 1242.599 0.02215
-0.03414 -0.16806 0.64287 0.66535 0.41060 0.988 1242.629 0.02218
-0.03418 -0.16825 0.64359 0.66610 0.41249 1.215 1242.659 0.02220
-0.03422 -0.16844 0.64432 0.66685 0.41438 1.103 1242.689 0.02223
-0.03426 -0.16863 0.64504 0.66760 0.41628 0.839 1242.719 0.02225
-0.03429 -0.16882 0.64577 0.66835 0.41817 1.048 1242.749 0.02227
-0.03433 -0.16901 0.64649 0.66910 0.42006 1.012 1242.778 0.02230
-0.03437 -0.16920 0.64722 0.66985 0.42195 0.948 1242.808 0.02232
-0.03441 -0.16939 0.64794 0.67060 0.42384 1.057 1242.838 0.02235
-0.03445 -0.16958 0.64867 0.67135 0.42573 0.914 1242.868 0.02237
-0.03449 -0.16977 0.64939 0.67210 0.42762 1.146 1242.898 0.02240
-0.03452 -0.16995 0.65011 0.67285 0.42951 1.186 1242.928 0.02242
-0.03456 -0.17014 0.65084 0.67360 0.43141 1.207 1242.958 0.02245
-0.03460 -0.17033 0.65156 0.67435 0.43330 0.949 1242.988 0.02247
-0.03464 -0.17052 0.65229 0.67510 0.43519 0.923 1243.017 0.02250
-0.03468 -0.17071 0.65301 0.67585 0.43708 0.829 1243.047 0.02252
-0.03472 -0.17090 0.65374 0.67660 0.43897 0.913 1243.077 0.02254
-0.03476 -0.17109 0.65446 0.67735 0.44087 1.170 1243.107 0.02257
-0.03479 -0.17128 0.65519 0.67810 0.44276 1.171 1243.137 0.02259
-0.03483 -0.17147 0.65591 0.67885 0.44465 1.034 1243.167 0.02262
-0.03487 -0.17166 0.65664 0.67960 0.44654 0.988 1243.197 0.02264
-0.03491 -0.17185 0.65736 0.68035 0.44843 1.019 1243.227 0.02267
-0.03495 -0.17204 0.65809 0.68110 0.45033 1.003 1243.257 0.02269
-0.03499 -0.17223 0.65881 0.68185 0.45222 0.866 1243.286 0.02272
-0.03502 -0.17242 0.65954 0.68260 0.45411 1.260 1243.316 0.02274
-0.03506 -0.17261 0.66026 0.68335 0.45600 1.064 1243.346 0.02277
-0.03510 -0.17280 0.66098 0.68410 0.45790 1.048 1243.376 0.02279
-0.03514 -0.17299 0.66171 0.68485 0.45979 1.108 1243.406 0.02282
-0.03518 -0.17318 0.66243 0.68560 0.46168 1.062 1243.436 0.02284
-0.03522 -0.17337 0.66316 0.68635 0.46357 1.274 1243.466 0.02286
-0.03526 -0.17355 0.66388 0.68710 0.46547 0.925 1243.496 0.02289
-0.03529 -0.17374 0.66461 0.68785 0.46736 0.940 1243.525 0.02291
-0.03533 -0.17393 0.66533 0.68860 0.46925 1.137 1243.555 0.02294
-0.03537 -0.17412 0.66606 0.68935 0.47114 1.137 1243.585 0.02296
-0.03541 -0.17431 0.66678 0.69010 0.47304 1.169 1243.615 0.02299
-0.03545 -0.17450 0.66751 0.69085 0.47493 1.032 1243.645 0.02301
-0.03549 -0.17469 0.66823 0.69160 0.47682 1.032 1243.675 0.02304
-0.03553 -0.17488 0.66896 0.69235 0.47872 1.047 1243.705 0.02306
-0.03556 -0.17507 0.66969 0.69310 0.48061 1.075 1243.735 0.02309
-0.03560 -0.17526 0.67041 0.69385 0.48250 0.986 1243.764 0.02311
-0.03564 -0.17545 0.67114 0.69461 0.48440 1.031 1243.794 0.02313
-0.03568 -0.17564 0.67186 0.69536 0.48629 0.939 1243.824 0.02316
-0.03572 -0.17583 0.67259 0.69611 0.48818 1.015 1243.854 0.02318
-0.03576 -0.17602 0.67331 0.69686 0.49008 1.015 1243.884 0.02321
-0.03579 -0.17621 0.67404 0.69761 0.49197 1.300 1243.914 0.02323
-0.03583 -0.17640 0.67476 0.69836 0.49387 0.878 1243.944 0.02326
-0.03587 -0.17659 0.67549 0.69911 0.49576 0.937 1243.974 0.02328
-0.03591 -0.17678 0.67621 0.69986 0.49765 1.059 1244.003 0.02331
-0.03595 -0.17697 0.67694 0.70061 0.49955 0.952 1244.033 0.02333
-0.03599 -0.17716 0.67766 0.70136 0.50144 0.953 1244.063 0.02336
-0.03603 -0.17735 0.67839 0.70211 0.50334 0.968 1244.093 0.02338
-0.03606 -0.17754 0.67911 0.70286 0.50523 0.802 1244.123 0.02341
-0.03610 -0.17773 0.67984 0.70361 0.50712 1.135 1244.153 0.02343
-0.03614 -0.17792 0.68057 0.70437 0.50902 0.938 1244.183 0.02345
-0.03618 -0.17811 0.68129 0.70512 0.51091 1.089 1244.213 0.02348
-0.03622 -0.17830 0.68202 0.70587 0.51281 1.074 1244.243 0.02350
-0.03626 -0.17848 0.68274 0.70662 0.51470 1.059 1244.272 0.02353
-0.03630 -0.17867 0.68347 0.70737 0.51660 0.937 1244.302 0.02355
-0.03633 -0.17886 0.68419 0.70812 0.51849 0.967 1244.332 0.02358
-0.03637 -0.17905 0.68492 0.70887 0.52039 1.057 1244.362 0.02360
-0.03641 -0.17924 0.68565 0.70962 0.52228 1.161 1244.392 0.02363
-0.03645 -0.17943 0.68637 0.71037 0.52418 1.102 1244.422 0.02365
-0.03649 -0.17962 0.68710 0.71112 0.52607 0.771 1244.452 0.02368
-0.03653 -0.17981 0.68782 0.71188 0.52797 0.816 1244.482 0.02370
-0.03657 -0.18000 0.68855 0.71263 0.52986 0.861 1244.511 0.02372
-0.03660 -0.18019 0.68927 0.71338 0.53176 0.696 1244.541 0.02375
-0.03664 -0.18038 0.69000 0.71413 0.53365 0.470 1244.571 0.02377
-0.03668 -0.18057 0.69073 0.71488 0.53555 0.319 1244.601 0.02380
-0.03672 -0.18076 0.69145 0.71563 0.53744 0.200 1244.631 0.02382
-0.03676 -0.18095 0.69218 0.71638 0.53934 0.200 1244.661 0.02385
-0.03680 -0.18114 0.69290 0.71714 0.54123 0.200 1244.691 0.02387
-0.03684 -0.18133 0.69363 0.71789 0.54313 0.140 1244.721 0.02390
-0.03687 -0.18152 0.69436 0.71864 0.54502 0.034 1244.750 0.02392
-0.03691 -0.18171 0.69508 0.71939 0.54692 0.004 1244.780 0.02395
-0.03695 -0.18190 0.69581 0.72014 0.54882 0.035 1244.810 0.02397
-0.03699 -0.18209 0.69654 0.72089 0.55071 0.005 1244.840 0.02400
-0.03703 -0.18228 0.69726 0.72164 0.55261 0.020 1244.870 0.02402
-0.03707 -0.18247 0.69799 0.72240 0.55450 0.051 1244.900 0.02404
-0.03711 -0.18266 0.69871 0.72315 0.55640 0.050 1244.930 0.02407
-0.03714 -0.18285 0.69944 0.72390 0.55829 0.096 1244.960 0.02409
-0.03718 -0.18304 0.70017 0.72465 0.56019 0.170 1244.989 0.02412
-0.03722 -0.18323 0.70089 0.72540 0.56209 0.170 1245.019 0.02414
-0.03726 -0.18342 0.70162 0.72615 0.56398 0.260 1245.049 0.02417
-0.03730 -0.18361 0.70235 0.72691 0.56588 0.319 1245.079 0.02419
-0.03734 -0.18380 0.70307 0.72766 0.56778 0.484 1245.109 0.02422
-0.03738 -0.18399 0.70380 0.72841 0.56967 0.379 1245.139 0.02424
-0.03741 -0.18418 0.70452 0.72916 0.57157 0.425 1245.169 0.02427
-0.03745 -0.18437 0.70525 0.72991 0.57347 0.349 1245.199 0.02429
-0.03749 -0.18456 0.70598 0.73066 0.57536 0.258 1245.229 0.02431
