x y z dist_scaled dist_frac flux_norm wavelength redshift
0.15101 0.29412 0.37852 0.50258 0.00000 0.838 1236.115 0.01682
0.15124 0.29456 0.37908 0.50333 0.00188 1.107 1236.145 0.01684
0.15146 0.29499 0.37964 0.50407 0.00375 1.270 1236.175 0.01687
0.15168 0.29543 0.38020 0.50481 0.00563 1.028 1236.205 0.01689
0.15191 0.29586 0.38076 0.50556 0.00751 1.196 1236.235 0.01692
0.15213 0.29630 0.38132 0.50630 0.00938 1.117 1236.265 0.01694
0.15235 0.29674 0.38188 0.50705 0.01126 1.161 1236.295 0.01697
0.15258 0.29717 0.38244 0.50779 0.01313 1.062 1236.325 0.01699
0.15280 0.29761 0.38300 0.50853 0.01501 1.127 1236.355 0.01701
0.15302 0.29804 0.38356 0.50928 0.01689 0.987 1236.384 0.01704
0.15325 0.29848 0.38412 0.51002 0.01876 1.254 1236.414 0.01706
0.15347 0.29891 0.38468 0.51077 0.02064 0.868 1236.444 0.01709
0.15369 0.29935 0.38524 0.51151 0.02252 1.194 1236.474 0.01711
0.15392 0.29978 0.38580 0.51225 0.02440 1.019 1236.504 0.01714
0.15414 0.30022 0.38636 0.51300 0.02627 1.094 1236.534 0.01716
0.15437 0.30065 0.38692 0.51374 0.02815 0.803 1236.564 0.01719
0.15459 0.30109 0.38748 0.51449 0.03003 0.922 1236.594 0.01721
0.15481 0.30152 0.38804 0.51523 0.03190 1.038 1236.623 0.01724
0.15504 0.30196 0.38860 0.51597 0.03378 0.965 1236.653 0.01726
0.15526 0.30240 0.38916 0.51672 0.03566 0.777 1236.683 0.01729
0.15548 0.30283 0.38972 0.51746 0.03754 0.822 1236.713 0.01731
0.15571 0.30327 0.39029 0.51821 0.03941 0.889 1236.743 0.01733
0.15593 0.30370 0.39085 0.51895 0.04129 0.844 1236.773 0.01736
0.15615 0.30414 0.39141 0.51970 0.04317 1.007 1236.803 0.01738
0.15638 0.30457 0.39197 0.52044 0.04505 0.867 1236.833 0.01741
0.15660 0.30501 0.39253 0.52118 0.04692 0.843 1236.862 0.01743
0.15683 0.30545 0.39309 0.52193 0.04880 0.957 1236.892 0.01746
0.15705 0.30588 0.39365 0.52267 0.05068 0.862 1236.922 0.01748
0.15727 0.30632 0.39421 0.52342 0.05256 1.049 1236.952 0.01751
0.15750 0.30675 0.39477 0.52416 0.05444 0.953 1236.982 0.01753
0.15772 0.30719 0.39533 0.52491 0.05631 0.626 1237.012 0.01756
0.15794 0.30762 0.39589 0.52565 0.05819 1.021 1237.042 0.01758
0.15817 0.30806 0.39645 0.52640 0.06007 0.951 1237.072 0.01760
0.15839 0.30850 0.39701 0.52714 0.06195 0.762 1237.101 0.01763
0.15861 0.30893 0.39757 0.52788 0.06383 0.740 1237.131 0.01765
0.15884 0.30937 0.39813 0.52863 0.06571 0.668 1237.161 0.01768
0.15906 0.30980 0.39870 0.52937 0.06758 0.715 1237.191 0.01770
0.15929 0.31024 0.39926 0.53012 0.06946 0.717 1237.221 0.01773
0.15951 0.31067 0.39982 0.53086 0.07134 0.739 1237.251 0.01775
0.15973 0.31111 0.40038 0.53161 0.07322 0.462 1237.281 0.01778
0.15996 0.31155 0.40094 0.53235 0.07510 0.346 1237.311 0.01780
0.16018 0.31198 0.40150 0.53310 0.07698 0.575 1237.341 0.01783
0.16041 0.31242 0.40206 0.53384 0.07886 0.414 1237.370 0.01785
0.16063 0.31285 0.40262 0.53459 0.08074 0.438 1237.400 0.01788
0.16085 0.31329 0.40318 0.53533 0.08261 0.597 1237.430 0.01790
0.16108 0.31373 0.40374 0.53608 0.08449 0.665 1237.460 0.01792
0.16130 0.31416 0.40431 0.53682 0.08637 0.868 1237.490 0.01795
0.16152 0.31460 0.40487 0.53757 0.08825 0.866 1237.520 0.01797
0.16175 0.31503 0.40543 0.53831 0.09013 0.637 1237.550 0.01800
0.16197 0.31547 0.40599 0.53906 0.09201 0.931 1237.580 0.01802
0.16220 0.31591 0.40655 0.53980 0.09389 0.932 1237.609 0.01805
0.16242 0.31634 0.40711 0.54055 0.09577 0.908 1237.639 0.01807
0.16264 0.31678 0.40767 0.54129 0.09765 1.132 1237.669 0.01810
0.16287 0.31721 0.40823 0.54204 0.09953 1.064 1237.699 0.01812
0.16309 0.31765 0.40879 0.54278 0.10141 1.222 1237.729 0.01815
0.16332 0.31809 0.40936 0.54353 0.10329 0.905 1237.759 0.01817
0.16354 0.31852 0.40992 0.54427 0.10517 0.836 1237.789 0.01819
0.16376 0.31896 0.41048 0.54502 0.10705 1.151 1237.819 0.01822
0.16399 0.31939 0.41104 0.54576 0.10893 0.900 1237.848 0.01824
0.16421 0.31983 0.41160 0.54651 0.11081 1.101 1237.878 0.01827
0.16443 0.32027 0.41216 0.54725 0.11269 1.056 1237.908 0.01829
0.16466 0.32070 0.41272 0.54800 0.11457 1.168 1237.938 0.01832
0.16488 0.32114 0.41329 0.54874 0.11645 0.828 1237.968 0.01834
0.16511 0.32158 0.41385 0.54949 0.11833 0.649 1237.998 0.01837
0.16533 0.32201 0.41441 0.55024 0.12021 1.073 1238.028 0.01839
0.16555 0.32245 0.41497 0.55098 0.12209 1.048 1238.058 0.01842
0.16578 0.32288 0.41553 0.55173 0.12397 1.273 1238.087 0.01844
0.16600 0.32332 0.41609 0.55247 0.12585 1.003 1238.117 0.01847
0.16623 0.32376 0.41665 0.55322 0.12773 0.934 1238.147 0.01849
0.16645 0.32419 0.41722 0.55396 0.12961 0.755 1238.177 0.01851
0.16667 0.32463 0.41778 0.55471 0.13149 0.908 1238.207 0.01854
0.16690 0.32507 0.41834 0.55545 0.13338 0.842 1238.237 0.01856
0.16712 0.32550 0.41890 0.55620 0.13526 0.973 1238.267 0.01859
0.16735 0.32594 0.41946 0.55695 0.13714 0.930 1238.297 0.01861
0.16757 0.32637 0.42002 0.55769 0.13902 0.971 1238.327 0.01864
0.16780 0.32681 0.42058 0.55844 0.14090 1.037 1238.356 0.01866
0.16802 0.32725 0.42115 0.55918 0.14278 1.324 1238.386 0.01869
0.16824 0.32768 0.42171 0.55993 0.14466 1.103 1238.416 0.01871
0.16847 0.32812 0.42227 0.56067 0.14654 1.035 1238.446 0.01874
0.16869 0.32856 0.42283 0.56142 0.14843 1.032 1238.476 0.01876
0.16892 0.32899 0.42339 0.56217 0.15031 0.878 1238.506 0.01878
0.16914 0.32943 0.42396 0.56291 0.15219 0.944 1238.536 0.01881
0.16936 0.32987 0.42452 0.56366 0.15407 0.966 1238.566 0.01883
0.16959 0.33030 0.42508 0.56440 0.15595 0.965 1238.595 0.01886
0.16981 0.33074 0.42564 0.56515 0.15783 1.204 1238.625 0.01888
0.17004 0.33118 0.42620 0.56590 0.15972 0.851 1238.655 0.01891
0.17026 0.33161 0.42676 0.56664 0.16160 1.028 1238.685 0.01893
0.17048 0.33205 0.42733 0.56739 0.16348 0.829 1238.715 0.01896
0.17071 0.33249 0.42789 0.56813 0.16536 1.181 1238.745 0.01898
0.17093 0.33292 0.42845 0.56888 0.16724 1.072 1238.775 0.01901
0.17116 0.33336 0.42901 0.56963 0.16913 1.047 1238.805 0.01903
0.17138 0.33380 0.42957 0.57037 0.17101 0.677 1238.834 0.01905
0.17161 0.33423 0.43014 0.57112 0.17289 0.741 1238.864 0.01908
0.17183 0.33467 0.43070 0.57186 0.17477 0.893 1238.894 0.01910
0.17205 0.33511 0.43126 0.57261 0.17665 1.106 1238.924 0.01913
0.17228 0.33554 0.43182 0.57336 0.17854 1.064 1238.954 0.01915
0.17250 0.33598 0.43238 0.57410 0.18042 0.997 1238.984 0.01918
0.17273 0.33642 0.43295 0.57485 0.18230 0.856 1239.014 0.01920
0.17295 0.33685 0.43351 0.57560 0.18419 1.207 1239.044 0.01923
0.17318 0.33729 0.43407 0.57634 0.18607 0.793 1239.073 0.01925
0.17340 0.33773 0.43463 0.57709 0.18795 0.900 1239.103 0.01928
0.17362 0.33816 0.43519 0.57784 0.18983 0.884 1239.133 0.01930
0.17385 0.33860 0.43576 0.57858 0.19172 0.941 1239.163 0.01933
0.17407 0.33904 0.43632 0.57933 0.19360 0.952 1239.193 0.01935
0.17430 0.33947 0.43688 0.58007 0.19548 0.734 1239.223 0.01937
0.17452 0.33991 0.43744 0.58082 0.19737 0.832 1239.253 0.01940
0.17475 0.34035 0.43801 0.58157 0.19925 1.136 1239.283 0.01942
0.17497 0.34078 0.43857 0.58231 0.20113 1.171 1239.313 0.01945
0.17519 0.34122 0.43913 0.58306 0.20302 1.040 1239.342 0.01947
0.17542 0.34166 0.43969 0.58381 0.20490 0.952 1239.372 0.01950
0.17564 0.34210 0.44025 0.58455 0.20678 1.035 1239.402 0.01952
0.17587 0.34253 0.44082 0.58530 0.20867 1.120 1239.432 0.01955
0.17609 0.34297 0.44138 0.58605 0.21055 0.903 1239.462 0.01957
0.17632 0.34341 0.44194 0.58679 0.21243 0.945 1239.492 0.01960
0.17654 0.34384 0.44250 0.58754 0.21432 1.031 1239.522 0.01962
0.17676 0.34428 0.44307 0.58829 0.21620 1.202 1239.552 0.01964
0.17699 0.34472 0.44363 0.58904 0.21809 1.138 1239.581 0.01967
0.17721 0.34515 0.44419 0.58978 0.21997 0.901 1239.611 0.01969
0.17744 0.34559 0.44475 0.59053 0.22185 1.073 1239.641 0.01972
0.17766 0.34603 0.44532 0.59128 0.22374 0.817 1239.671 0.01974
0.17789 0.34647 0.44588 0.59202 0.22562 0.945 1239.701 0.01977
0.17811 0.34690 0.44644 0.59277 0.22751 1.182 1239.731 0.01979
0.17834 0.34734 0.44700 0.59352 0.22939 0.601 1239.761 0.01982
0.17856 0.34778 0.44757 0.59426 0.23128 0.857 1239.791 0.01984
0.17878 0.34821 0.44813 0.59501 0.23316 1.007 1239.820 0.01987
0.17901 0.34865 0.44869 0.59576 0.23504 1.114 1239.850 0.01989
0.17923 0.34909 0.44926 0.59650 0.23693 0.706 1239.880 0.01992
0.17946 0.34953 0.44982 0.59725 0.23881 0.748 1239.910 0.01994
0.17968 0.34996 0.45038 0.59800 0.24070 0.835 1239.940 0.01996
0.17991 0.35040 0.45094 0.59875 0.24258 0.684 1239.970 0.01999
0.18013 0.35084 0.45151 0.59949 0.24447 0.983 1240.000 0.02001
0.18036 0.35128 0.45207 0.60024 0.24635 1.004 1240.030 0.02004
0.18058 0.35171 0.45263 0.60099 0.24824 0.961 1240.059 0.02006
0.18081 0.35215 0.45319 0.60174 0.25012 1.005 1240.089 0.02009
0.18103 0.35259 0.45376 0.60248 0.25201 0.813 1240.119 0.02011
0.18125 0.35302 0.45432 0.60323 0.25389 0.769 1240.149 0.02014
0.18148 0.35346 0.45488 0.60398 0.25578 1.004 1240.179 0.02016
0.18170 0.35390 0.45545 0.60472 0.25766 0.811 1240.209 0.02019
0.18193 0.35434 0.45601 0.60547 0.25955 0.875 1240.239 0.02021
0.18215 0.35477 0.45657 0.60622 0.26144 0.960 1240.269 0.02023
0.18238 0.35521 0.45713 0.60697 0.26332 1.110 1240.299 0.02026
0.18260 0.35565 0.45770 0.60771 0.26521 0.982 1240.328 0.02028
0.18283 0.35609 0.45826 0.60846 0.26709 0.790 1240.358 0.02031
0.18305 0.35652 0.45882 0.60921 0.26898 1.024 1240.388 0.02033
0.18328 0.35696 0.45939 0.60996 0.27086 0.832 1240.418 0.02036
0.18350 0.35740 0.45995 0.61070 0.27275 0.875 1240.448 0.02038
0.18372 0.35784 0.46051 0.61145 0.27464 1.067 1240.478 0.02041
0.18395 0.35827 0.46108 0.61220 0.27652 0.811 1240.508 0.02043
0.18417 0.35871 0.46164 0.61295 0.27841 1.023 1240.538 0.02046
0.18440 0.35915 0.46220 0.61370 0.28029 1.088 1240.567 0.02048
0.18462 0.35959 0.46277 0.61444 0.28218 1.194 1240.597 0.02050
0.18485 0.36002 0.46333 0.61519 0.28407 0.831 1240.627 0.02053
0.18507 0.36046 0.46389 0.61594 0.28595 0.598 1240.657 0.02055
0.18530 0.36090 0.46445 0.61669 0.28784 0.682 1240.687 0.02058
0.18552 0.36134 0.46502 0.61743 0.28973 0.789 1240.717 0.02060
0.18575 0.36178 0.46558 0.61818 0.29161 0.617 1240.747 0.02063
0.18597 0.36221 0.46614 0.61893 0.29350 0.764 1240.777 0.02065
0.18620 0.36265 0.46671 0.61968 0.29539 0.658 1240.806 0.02068
0.18642 0.36309 0.46727 0.62043 0.29727 0.868 1240.836 0.02070
0.18665 0.36353 0.46783 0.62117 0.29916 0.997 1240.866 0.02073
0.18687 0.36396 0.46840 0.62192 0.30105 1.209 1240.896 0.02075
0.18710 0.36440 0.46896 0.62267 0.30293 0.976 1240.926 0.02078
0.18732 0.36484 0.46952 0.62342 0.30482 1.103 1240.956 0.02080
0.18754 0.36528 0.47009 0.62417 0.30671 0.807 1240.986 0.02082
0.18777 0.36571 0.47065 0.62491 0.30859 1.038 1241.016 0.02085
0.18799 0.36615 0.47121 0.62566 0.31048 1.103 1241.045 0.02087
0.18822 0.36659 0.47178 0.62641 0.31237 1.102 1241.075 0.02090
0.18844 0.36703 0.47234 0.62716 0.31426 0.934 1241.105 0.02092
0.18867 0.36747 0.47291 0.62791 0.31614 0.912 1241.135 0.02095
0.18889 0.36790 0.47347 0.62866 0.31803 1.078 1241.165 0.02097
0.18912 0.36834 0.47403 0.62940 0.31992 0.804 1241.195 0.02100
0.18934 0.36878 0.47460 0.63015 0.32181 1.362 1241.225 0.02102
0.18957 0.36922 0.47516 0.63090 0.32369 0.925 1241.255 0.02105
0.18979 0.36966 0.47572 0.63165 0.32558 1.118 1241.285 0.02107
0.19002 0.37009 0.47629 0.63240 0.32747 0.805 1241.314 0.02109
0.19024 0.37053 0.47685 0.63315 0.32936 1.226 1241.344 0.02112
0.19047 0.37097 0.47741 0.63389 0.33125 0.977 1241.374 0.02114
0.19069 0.37141 0.47798 0.63464 0.33313 1.145 1241.404 0.02117
0.19092 0.37185 0.47854 0.63539 0.33502 1.044 1241.434 0.02119
0.19114 0.37228 0.47911 0.63614 0.33691 1.091 1241.464 0.02122
0.19137 0.37272 0.47967 0.63689 0.33880 1.081 1241.494 0.02124
0.19159 0.37316 0.48023 0.63764 0.34069 1.046 1241.524 0.02127
0.19182 0.37360 0.48080 0.63838 0.34258 0.868 1241.553 0.02129
0.19204 0.37404 0.48136 0.63913 0.34446 1.110 1241.583 0.02132
0.19227 0.37447 0.48192 0.63988 0.34635 1.318 1241.613 0.02134
0.19249 0.37491 0.48249 0.64063 0.34824 0.833 1241.643 0.02137
0.19272 0.37535 0.48305 0.64138 0.35013 0.780 1241.673 0.02139
0.19294 0.37579 0.48362 0.64213 0.35202 0.928 1241.703 0.02141
0.19317 0.37623 0.48418 0.64288 0.35391 1.097 1241.733 0.02144
0.19339 0.37667 0.48474 0.64363 0.35580 0.948 1241.763 0.02146
0.19362 0.37710 0.48531 0.64437 0.35769 0.801 1241.792 0.02149
0.19384 0.37754 0.48587 0.64512 0.35957 1.119 1241.822 0.02151
0.19407 0.37798 0.48644 0.64587 0.36146 1.097 1241.852 0.02154
0.19429 0.37842 0.48700 0.64662 0.36335 1.288 1241.882 0.02156
0.19452 0.37886 0.48756 0.64737 0.36524 1.097 1241.912 0.02159
0.19474 0.37929 0.48813 0.64812 0.36713 0.949 1241.942 0.02161
0.19497 0.37973 0.48869 0.64887 0.36902 1.096 1241.972 0.02164
0.19519 0.38017 0.48926 0.64962 0.37091 0.909 1242.002 0.02166
0.19542 0.38061 0.48982 0.65037 0.37280 0.949 1242.031 0.02168
0.19564 0.38105 0.49038 0.65111 0.37469 0.928 1242.061 0.02171
0.19587 0.38149 0.49095 0.65186 0.37658 0.970 1242.091 0.02173
0.19609 0.38192 0.49151 0.65261 0.37847 1.075 1242.121 0.02176
0.19632 0.38236 0.49208 0.65336 0.38036 1.223 1242.151 0.02178
0.19654 0.38280 0.49264 0.65411 0.38225 1.057 1242.181 0.02181
0.19677 0.38324 0.49321 0.65486 0.38414 1.036 1242.211 0.02183
0.19699 0.38368 0.49377 0.65561 0.38603 1.248 1242.241 0.02186
0.19722 0.38412 0.49433 0.65636 0.38792 1.142 1242.271 0.02188
0.19744 0.38456 0.49490 0.65711 0.38981 0.995 1242.300 0.02191
0.19767 0.38499 0.49546 0.65786 0.39170 0.952 1242.330 0.02193
0.19789 0.38543 0.49603 0.65861 0.39359 1.077 1242.360 0.02196
0.19812 0.38587 0.49659 0.65936 0.39548 0.888 1242.390 0.02198
0.19834 0.38631 0.49716 0.66011 0.39737 1.120 1242.420 0.02200
0.19857 0.38675 0.49772 0.66085 0.39926 0.679 1242.450 0.02203
0.19879 0.38719 0.49828 0.66160 0.40115 0.890 1242.480 0.02205
0.19902 0.38763 0.49885 0.66235 0.40304 1.039 1242.510 0.02208
0.19924 0.38806 0.49941 0.66310 0.40493 0.723 1242.539 0.02210
0.19947 0.38850 0.49998 0.66385 0.40682 1.167 1242.569 0.02213
0.19969 0.38894 0.50054 0.66460 0.40871 0.765 1242.599 0.02215
0.19992 0.38938 0.50111 0.66535 0.41060 1.020 1242.629 0.02218
0.20015 0.38982 0.50167 0.66610 0.41249 1.143 1242.659 0.02220
0.20037 0.39026 0.50224 0.66685 0.41438 0.891 1242.689 0.02223
0.20060 0.39070 0.50280 0.66760 0.41628 0.931 1242.719 0.02225
0.20082 0.39113 0.50337 0.66835 0.41817 0.995 1242.749 0.02227
0.20105 0.39157 0.50393 0.66910 0.42006 0.953 1242.778 0.02230
0.20127 0.39201 0.50449 0.66985 0.42195 0.996 1242.808 0.02232
0.20150 0.39245 0.50506 0.67060 0.42384 0.956 1242.838 0.02235
0.20172 0.39289 0.50562 0.67135 0.42573 1.041 1242.868 0.02237
0.20195 0.39333 0.50619 0.67210 0.42762 1.126 1242.898 0.02240
0.20217 0.39377 0.50675 0.67285 0.42951 0.872 1242.928 0.02242
0.20240 0.39421 0.50732 0.67360 0.43141 1.252 1242.958 0.02245
0.20262 0.39465 0.50788 0.67435 0.43330 1.104 1242.988 0.02247
0.20285 0.39508 0.50845 0.67510 0.43519 1.168 1243.017 0.02250
0.20307 0.39552 0.50901 0.67585 0.43708 0.957 1243.047 0.02252
0.20330 0.39596 0.50958 0.67660 0.43897 1.019 1243.077 0.02254
0.20352 0.39640 0.51014 0.67735 0.44087 0.911 1243.107 0.02257
0.20375 0.39684 0.51071 0.67810 0.44276 0.891 1243.137 0.02259
0.20398 0.39728 0.51127 0.67885 0.44465 1.227 1243.167 0.02262
0.20420 0.39772 0.51184 0.67960 0.44654 0.973 1243.197 0.02264
0.20443 0.39816 0.51240 0.68035 0.44843 1.142 1243.227 0.02267
0.20465 0.39860 0.51297 0.68110 0.45033 0.593 1243.257 0.02269
0.20488 0.39903 0.51353 0.68185 0.45222 0.868 1243.286 0.02272
0.20510 0.39947 0.51410 0.68260 0.45411 0.953 1243.316 0.02274
0.20533 0.39991 0.51466 0.68335 0.45600 1.165 1243.346 0.02277
0.20555 0.40035 0.51523 0.68410 0.45790 0.931 1243.376 0.02279
0.20578 0.40079 0.51579 0.68485 0.45979 0.995 1243.406 0.02282
0.20600 0.40123 0.51636 0.68560 0.46168 0.656 1243.436 0.02284
0.20623 0.40167 0.51692 0.68635 0.46357 0.785 1243.466 0.02286
0.20645 0.40211 0.51749 0.68710 0.46547 1.212 1243.496 0.02289
0.20668 0.40255 0.51805 0.68785 0.46736 1.085 1243.525 0.02291
0.20691 0.40299 0.51862 0.68860 0.46925 1.062 1243.555 0.02294
0.20713 0.40343 0.51918 0.68935 0.47114 1.021 1243.585 0.02296
0.20736 0.40386 0.51975 0.69010 0.47304 0.618 1243.615 0.02299
0.20758 0.40430 0.52031 0.69085 0.47493 0.895 1243.645 0.02301
0.20781 0.40474 0.52088 0.69160 0.47682 1.149 1243.675 0.02304
0.20803 0.40518 0.52144 0.69235 0.47872 0.939 1243.705 0.02306
0.20826 0.40562 0.52201 0.69310 0.48061 0.960 1243.735 0.02309
0.20848 0.40606 0.52257 0.69385 0.48250 1.002 1243.764 0.02311
0.20871 0.40650 0.52314 0.69461 0.48440 0.641 1243.794 0.02313
0.20894 0.40694 0.52370 0.69536 0.48629 0.620 1243.824 0.02316
0.20916 0.40738 0.52427 0.69611 0.48818 1.065 1243.854 0.02318
0.20939 0.40782 0.52483 0.69686 0.49008 0.830 1243.884 0.02321
0.20961 0.40826 0.52540 0.69761 0.49197 0.828 1243.914 0.02323
0.20984 0.40870 0.52597 0.69836 0.49387 0.744 1243.944 0.02326
0.21006 0.40914 0.52653 0.69911 0.49576 1.020 1243.974 0.02328
0.21029 0.40958 0.52710 0.69986 0.49765 0.957 1244.003 0.02331
0.21051 0.41001 0.52766 0.70061 0.49955 0.957 1244.033 0.02333
0.21074 0.41045 0.52823 0.70136 0.50144 0.752 1244.063 0.02336
0.21097 0.41089 0.52879 0.70211 0.50334 0.699 1244.093 0.02338
0.21119 0.41133 0.52936 0.70286 0.50523 0.798 1244.123 0.02341
0.21142 0.41177 0.52992 0.70361 0.50712 1.016 1244.153 0.02343
0.21164 0.41221 0.53049 0.70437 0.50902 0.852 1244.183 0.02345
0.21187 0.41265 0.53106 0.70512 0.51091 0.993 1244.213 0.02348
0.21209 0.41309 0.53162 0.70587 0.51281 0.905 1244.243 0.02350
0.21232 0.41353 0.53219 0.70662 0.51470 0.919 1244.272 0.02353
0.21255 0.41397 0.53275 0.70737 0.51660 0.863 1244.302 0.02355
0.21277 0.41441 0.53332 0.70812 0.51849 0.750 1244.332 0.02358
0.21300 0.41485 0.53388 0.70887 0.52039 1.020 1244.362 0.02360
0.21322 0.41529 0.53445 0.70962 0.52228 0.796 1244.392 0.02363
0.21345 0.41573 0.53502 0.71037 0.52418 1.077 1244.422 0.02365
0.21367 0.41617 0.53558 0.71112 0.52607 1.007 1244.452 0.02368
0.21390 0.41661 0.53615 0.71188 0.52797 1.129 1244.482 0.02370
0.21413 0.41705 0.53671 0.71263 0.52986 0.910 1244.511 0.02372
0.21435 0.41749 0.53728 0.71338 0.53176 1.131 1244.541 0.02375
0.21458 0.41793 0.53784 0.71413 0.53365 1.030 1244.571 0.02377
0.21480 0.41837 0.53841 0.71488 0.53555 0.714 1244.601 0.02380
0.21503 0.41881 0.53898 0.71563 0.53744 1.309 1244.631 0.02382
0.21525 0.41925 0.53954 0.71638 0.53934 0.863 1244.661 0.02385
0.21548 0.41968 0.54011 0.71714 0.54123 1.033 1244.691 0.02387
0.21571 0.42012 0.54067 0.71789 0.54313 1.055 1244.721 0.02390
0.21593 0.42056 0.54124 0.71864 0.54502 0.948 1244.750 0.02392
0.21616 0.42100 0.54181 0.71939 0.54692 0.926 1244.780 0.02395
0.21638 0.42144 0.54237 0.72014 0.54882 0.746 1244.810 0.02397
0.21661 0.42188 0.54294 0.72089 0.55071 0.706 1244.840 0.02400
0.21683 0.42232 0.54350 0.72164 0.55261 0.483 1244.870 0.02402
0.21706 0.42276 0.54407 0.72240 0.55450 0.610 1244.900 0.02404
0.21729 0.42320 0.54464 0.72315 0.55640 0.556 1244.930 0.02407
0.21751 0.42364 0.54520 0.72390 0.55829 0.598 1244.960 0.02409
0.21774 0.42408 0.54577 0.72465 0.56019 0.492 1244.989 0.02412
0.21796 0.42452 0.54633 0.72540 0.56209 0.471 1245.019 0.02414
0.21819 0.42496 0.54690 0.72615 0.56398 0.428 1245.049 0.02417
0.21842 0.42540 0.54747 0.72691 0.56588 0.342 1245.079 0.02419
0.21864 0.42584 0.54803 0.72766 0.56778 0.385 1245.109 0.02422
0.21887 0.42628 0.54860 0.72841 0.56967 0.236 1245.139 0.02424
0.21909 0.42672 0.54916 0.72916 0.57157 0.302 1245.169 0.02427
0.21932 0.42716 0.54973 0.72991 0.57347 0.323 1245.199 0.02429
0.21954 0.42760 0.55030 0.73066 0.57536 0.475 1245.229 0.02431
0.21977 0.42804 0.55086 0.73142 0.57726 0.497 1245.258 0.02434
0.22000 0.42848 0.55143 0.73217 0.57916 0.799 1245.288 0.02436
0.22022 0.42892 0.55200 0.73292 0.58105 0.885 1245.318 0.02439
0.22045 0.42936 0.55256 0.73367 0.58295 0.949 1245.348 0.02441
0.22067 0.42980 0.55313 0.73442 0.58485 1.424 1245.378 0.02444
0.22090 0.43024 0.55370 0.73518 0.58674 0.711 1245.408 0.02446
0.22113 0.43068 0.55426 0.73593 0.58864 1.101 1245.438 0.02449
0.22135 0.43112 0.55483 0.73668 0.59054 1.016 1245.468 0.02451
0.22158 0.43156 0.55539 0.73743 0.59244 0.951 1245.497 0.02454
0.22180 0.43200 0.55596 0.73819 0.59433 1.078 1245.527 0.02456
