x y z dist_scaled dist_frac flux_norm sig_norm wavelength redshift
0.25366 -0.17022 0.39909 0.50258 0.00000 0.877 0.114 1236.115 0.01682
0.25403 -0.17048 0.39968 0.50333 0.00188 1.003 0.121 1236.145 0.01684
0.25441 -0.17073 0.40027 0.50407 0.00375 1.073 0.118 1236.175 0.01687
0.25478 -0.17098 0.40086 0.50481 0.00563 1.151 0.122 1236.205 0.01689
0.25516 -0.17123 0.40145 0.50556 0.00751 1.039 0.116 1236.235 0.01692
0.25553 -0.17148 0.40204 0.50630 0.00938 1.037 0.115 1236.265 0.01694
0.25591 -0.17174 0.40263 0.50705 0.01126 0.865 0.106 1236.295 0.01697
0.25628 -0.17199 0.40322 0.50779 0.01313 0.970 0.120 1236.325 0.01699
0.25666 -0.17224 0.40381 0.50853 0.01501 0.900 0.116 1236.355 0.01701
0.25703 -0.17249 0.40440 0.50928 0.01689 0.878 0.114 1236.384 0.01704
0.25741 -0.17274 0.40500 0.51002 0.01876 0.729 0.112 1236.414 0.01706
0.25779 -0.17300 0.40559 0.51077 0.02064 1.189 0.124 1236.444 0.01709
0.25816 -0.17325 0.40618 0.51151 0.02252 0.960 0.127 1236.474 0.01711
0.25854 -0.17350 0.40677 0.51225 0.02440 1.064 0.118 1236.504 0.01714
0.25891 -0.17375 0.40736 0.51300 0.02627 0.969 0.113 1236.534 0.01716
0.25929 -0.17400 0.40795 0.51374 0.02815 0.985 0.121 1236.564 0.01719
0.25966 -0.17426 0.40854 0.51449 0.03003 1.076 0.119 1236.594 0.01721
0.26004 -0.17451 0.40913 0.51523 0.03190 1.003 0.122 1236.623 0.01724
0.26041 -0.17476 0.40972 0.51597 0.03378 1.027 0.123 1236.653 0.01726
0.26079 -0.17501 0.41031 0.51672 0.03566 0.811 0.118 1236.683 0.01729
0.26117 -0.17526 0.41090 0.51746 0.03754 1.081 0.119 1236.713 0.01731
0.26154 -0.17552 0.41150 0.51821 0.03941 1.067 0.118 1236.743 0.01733
0.26192 -0.17577 0.41209 0.51895 0.04129 0.996 0.122 1236.773 0.01736
0.26229 -0.17602 0.41268 0.51970 0.04317 1.026 0.124 1236.803 0.01738
0.26267 -0.17627 0.41327 0.52044 0.04505 1.120 0.121 1236.833 0.01741
0.26304 -0.17652 0.41386 0.52118 0.04692 0.991 0.121 1236.862 0.01743
0.26342 -0.17678 0.41445 0.52193 0.04880 1.089 0.119 1236.892 0.01746
0.26380 -0.17703 0.41504 0.52267 0.05068 1.053 0.118 1236.922 0.01748
0.26417 -0.17728 0.41563 0.52342 0.05256 0.729 0.113 1236.952 0.01751
0.26455 -0.17753 0.41622 0.52416 0.05444 0.787 0.109 1236.982 0.01753
0.26492 -0.17779 0.41682 0.52491 0.05631 1.227 0.126 1237.012 0.01756
0.26530 -0.17804 0.41741 0.52565 0.05819 0.775 0.116 1237.042 0.01758
0.26567 -0.17829 0.41800 0.52640 0.06007 0.741 0.113 1237.072 0.01760
0.26605 -0.17854 0.41859 0.52714 0.06195 0.718 0.112 1237.101 0.01763
0.26643 -0.17879 0.41918 0.52788 0.06383 0.729 0.113 1237.131 0.01765
0.26680 -0.17905 0.41977 0.52863 0.06571 0.695 0.111 1237.161 0.01768
0.26718 -0.17930 0.42036 0.52937 0.06758 0.801 0.117 1237.191 0.01770
0.26755 -0.17955 0.42095 0.53012 0.06946 0.869 0.114 1237.221 0.01773
0.26793 -0.17980 0.42155 0.53086 0.07134 0.893 0.115 1237.251 0.01775
0.26831 -0.18005 0.42214 0.53161 0.07322 0.962 0.127 1237.281 0.01778
0.26868 -0.18031 0.42273 0.53235 0.07510 0.707 0.112 1237.311 0.01780
0.26906 -0.18056 0.42332 0.53310 0.07698 0.893 0.123 1237.341 0.01783
0.26943 -0.18081 0.42391 0.53384 0.07886 0.962 0.127 1237.370 0.01785
0.26981 -0.18106 0.42450 0.53459 0.08074 1.010 0.115 1237.400 0.01788
0.27019 -0.18132 0.42509 0.53533 0.08261 0.685 0.102 1237.430 0.01790
0.27056 -0.18157 0.42569 0.53608 0.08449 0.801 0.117 1237.460 0.01792
0.27094 -0.18182 0.42628 0.53682 0.08637 0.708 0.112 1237.490 0.01795
0.27131 -0.18207 0.42687 0.53757 0.08825 0.768 0.115 1237.520 0.01797
0.27169 -0.18233 0.42746 0.53831 0.09013 1.012 0.122 1237.550 0.01800
0.27206 -0.18258 0.42805 0.53906 0.09201 0.885 0.122 1237.580 0.01802
0.27244 -0.18283 0.42864 0.53980 0.09389 1.001 0.122 1237.609 0.01805
0.27282 -0.18308 0.42924 0.54055 0.09577 0.989 0.121 1237.639 0.01807
0.27319 -0.18334 0.42983 0.54129 0.09765 0.920 0.124 1237.669 0.01810
0.27357 -0.18359 0.43042 0.54204 0.09953 0.756 0.115 1237.699 0.01812
0.27395 -0.18384 0.43101 0.54278 0.10141 0.755 0.115 1237.729 0.01815
0.27432 -0.18409 0.43160 0.54353 0.10329 0.941 0.118 1237.759 0.01817
0.27470 -0.18434 0.43219 0.54427 0.10517 0.953 0.119 1237.789 0.01819
0.27507 -0.18460 0.43279 0.54502 0.10705 1.003 0.129 1237.819 0.01822
0.27545 -0.18485 0.43338 0.54576 0.10893 1.012 0.122 1237.848 0.01824
0.27583 -0.18510 0.43397 0.54651 0.11081 0.793 0.109 1237.878 0.01827
0.27620 -0.18535 0.43456 0.54725 0.11269 0.875 0.122 1237.908 0.01829
0.27658 -0.18561 0.43515 0.54800 0.11457 0.897 0.123 1237.938 0.01832
0.27695 -0.18586 0.43574 0.54874 0.11645 0.874 0.115 1237.968 0.01834
0.27733 -0.18611 0.43634 0.54949 0.11833 1.037 0.124 1237.998 0.01837
0.27771 -0.18636 0.43693 0.55024 0.12021 0.989 0.121 1238.028 0.01839
0.27808 -0.18662 0.43752 0.55098 0.12209 1.024 0.116 1238.058 0.01842
0.27846 -0.18687 0.43811 0.55173 0.12397 0.910 0.124 1238.087 0.01844
0.27884 -0.18712 0.43870 0.55247 0.12585 0.909 0.124 1238.117 0.01847
0.27921 -0.18737 0.43930 0.55322 0.12773 0.921 0.125 1238.147 0.01849
0.27959 -0.18763 0.43989 0.55396 0.12961 0.864 0.121 1238.177 0.01851
0.27996 -0.18788 0.44048 0.55471 0.13149 1.060 0.118 1238.207 0.01854
0.28034 -0.18813 0.44107 0.55545 0.13338 0.980 0.121 1238.237 0.01856
0.28072 -0.18838 0.44166 0.55620 0.13526 1.073 0.119 1238.267 0.01859
0.28109 -0.18864 0.44226 0.55695 0.13714 1.119 0.121 1238.297 0.01861
0.28147 -0.18889 0.44285 0.55769 0.13902 0.862 0.121 1238.327 0.01864
0.28185 -0.18914 0.44344 0.55844 0.14090 0.653 0.108 1238.356 0.01866
0.28222 -0.18939 0.44403 0.55918 0.14278 0.570 0.103 1238.386 0.01869
0.28260 -0.18965 0.44463 0.55993 0.14466 0.524 0.099 1238.416 0.01871
0.28298 -0.18990 0.44522 0.56067 0.14654 0.547 0.101 1238.446 0.01874
0.28335 -0.19015 0.44581 0.56142 0.14843 0.617 0.106 1238.476 0.01876
0.28373 -0.19041 0.44640 0.56217 0.15031 0.886 0.123 1238.506 0.01878
0.28410 -0.19066 0.44699 0.56291 0.15219 1.025 0.123 1238.536 0.01881
0.28448 -0.19091 0.44759 0.56366 0.15407 0.979 0.121 1238.566 0.01883
0.28486 -0.19116 0.44818 0.56440 0.15595 0.968 0.120 1238.595 0.01886
0.28523 -0.19142 0.44877 0.56515 0.15783 0.886 0.123 1238.625 0.01888
0.28561 -0.19167 0.44936 0.56590 0.15972 0.887 0.123 1238.655 0.01891
0.28599 -0.19192 0.44996 0.56664 0.16160 0.852 0.121 1238.685 0.01893
0.28636 -0.19217 0.45055 0.56739 0.16348 0.759 0.115 1238.715 0.01896
0.28674 -0.19243 0.45114 0.56813 0.16536 1.040 0.124 1238.745 0.01898
0.28712 -0.19268 0.45173 0.56888 0.16724 0.946 0.119 1238.775 0.01901
0.28749 -0.19293 0.45233 0.56963 0.16913 1.029 0.123 1238.805 0.01903
0.28787 -0.19318 0.45292 0.57037 0.17101 0.792 0.117 1238.834 0.01905
0.28825 -0.19344 0.45351 0.57112 0.17289 0.924 0.118 1238.864 0.01908
0.28862 -0.19369 0.45410 0.57186 0.17477 0.909 0.117 1238.894 0.01910
0.28900 -0.19394 0.45470 0.57261 0.17665 0.817 0.111 1238.924 0.01913
0.28938 -0.19420 0.45529 0.57336 0.17854 1.042 0.125 1238.954 0.01915
0.28975 -0.19445 0.45588 0.57410 0.18042 0.968 0.120 1238.984 0.01918
0.29013 -0.19470 0.45647 0.57485 0.18230 0.795 0.118 1239.014 0.01920
0.29051 -0.19495 0.45707 0.57560 0.18419 1.038 0.117 1239.044 0.01923
0.29088 -0.19521 0.45766 0.57634 0.18607 1.018 0.123 1239.073 0.01925
0.29126 -0.19546 0.45825 0.57709 0.18795 0.893 0.123 1239.103 0.01928
0.29164 -0.19571 0.45885 0.57784 0.18983 0.910 0.125 1239.133 0.01930
0.29201 -0.19596 0.45944 0.57858 0.19172 0.894 0.124 1239.163 0.01933
0.29239 -0.19622 0.46003 0.57933 0.19360 0.960 0.120 1239.193 0.01935
0.29277 -0.19647 0.46062 0.58007 0.19548 1.133 0.115 1239.223 0.01937
0.29314 -0.19672 0.46122 0.58082 0.19737 0.832 0.120 1239.253 0.01940
0.29352 -0.19698 0.46181 0.58157 0.19925 1.005 0.123 1239.283 0.01942
0.29390 -0.19723 0.46240 0.58231 0.20113 0.920 0.125 1239.313 0.01945
0.29427 -0.19748 0.46299 0.58306 0.20302 1.135 0.123 1239.342 0.01947
0.29465 -0.19773 0.46359 0.58381 0.20490 1.106 0.120 1239.372 0.01950
0.29503 -0.19799 0.46418 0.58455 0.20678 0.970 0.120 1239.402 0.01952
0.29540 -0.19824 0.46477 0.58530 0.20867 1.075 0.119 1239.432 0.01955
0.29578 -0.19849 0.46537 0.58605 0.21055 1.021 0.124 1239.462 0.01957
0.29616 -0.19875 0.46596 0.58679 0.21243 0.896 0.117 1239.492 0.01960
0.29654 -0.19900 0.46655 0.58754 0.21432 1.127 0.122 1239.522 0.01962
0.29691 -0.19925 0.46715 0.58829 0.21620 0.951 0.127 1239.552 0.01964
0.29729 -0.19951 0.46774 0.58904 0.21809 1.081 0.120 1239.581 0.01967
0.29767 -0.19976 0.46833 0.58978 0.21997 0.870 0.122 1239.611 0.01969
0.29804 -0.20001 0.46892 0.59053 0.22185 1.164 0.117 1239.641 0.01972
0.29842 -0.20026 0.46952 0.59128 0.22374 1.163 0.124 1239.671 0.01974
0.29880 -0.20052 0.47011 0.59202 0.22562 1.118 0.121 1239.701 0.01977
0.29917 -0.20077 0.47070 0.59277 0.22751 1.037 0.124 1239.731 0.01979
0.29955 -0.20102 0.47130 0.59352 0.22939 1.022 0.124 1239.761 0.01982
0.29993 -0.20128 0.47189 0.59426 0.23128 0.907 0.117 1239.791 0.01984
0.30030 -0.20153 0.47248 0.59501 0.23316 0.942 0.126 1239.820 0.01987
0.30068 -0.20178 0.47308 0.59576 0.23504 1.046 0.117 1239.850 0.01989
0.30106 -0.20204 0.47367 0.59650 0.23693 0.882 0.116 1239.880 0.01992
0.30144 -0.20229 0.47426 0.59725 0.23881 0.837 0.112 1239.910 0.01994
0.30181 -0.20254 0.47486 0.59800 0.24070 0.882 0.123 1239.940 0.01996
0.30219 -0.20279 0.47545 0.59875 0.24258 0.800 0.118 1239.970 0.01999
0.30257 -0.20305 0.47604 0.59949 0.24447 0.916 0.117 1240.000 0.02001
0.30294 -0.20330 0.47664 0.60024 0.24635 1.027 0.124 1240.030 0.02004
0.30332 -0.20355 0.47723 0.60099 0.24824 0.844 0.122 1240.059 0.02006
0.30370 -0.20381 0.47782 0.60174 0.25012 0.988 0.123 1240.089 0.02009
0.30408 -0.20406 0.47842 0.60248 0.25201 0.935 0.127 1240.119 0.02011
0.30445 -0.20431 0.47901 0.60323 0.25389 1.145 0.123 1240.149 0.02014
0.30483 -0.20457 0.47960 0.60398 0.25578 1.069 0.119 1240.179 0.02016
0.30521 -0.20482 0.48020 0.60472 0.25766 0.785 0.118 1240.209 0.02019
0.30558 -0.20507 0.48079 0.60547 0.25955 1.156 0.117 1240.239 0.02021
0.30596 -0.20533 0.48138 0.60622 0.26144 1.199 0.119 1240.269 0.02023
0.30634 -0.20558 0.48198 0.60697 0.26332 0.934 0.127 1240.299 0.02026
0.30672 -0.20583 0.48257 0.60771 0.26521 0.836 0.113 1240.328 0.02028
0.30709 -0.20609 0.48316 0.60846 0.26709 1.035 0.125 1240.358 0.02031
0.30747 -0.20634 0.48376 0.60921 0.26898 1.248 0.121 1240.388 0.02033
0.30785 -0.20659 0.48435 0.60996 0.27086 0.984 0.122 1240.418 0.02036
0.30823 -0.20684 0.48495 0.61070 0.27275 0.860 0.122 1240.448 0.02038
0.30860 -0.20710 0.48554 0.61145 0.27464 1.053 0.126 1240.478 0.02041
0.30898 -0.20735 0.48613 0.61220 0.27652 0.916 0.118 1240.508 0.02043
0.30936 -0.20760 0.48673 0.61295 0.27841 1.041 0.118 1240.538 0.02046
0.30974 -0.20786 0.48732 0.61370 0.28029 1.012 0.116 1240.567 0.02048
0.31011 -0.20811 0.48791 0.61444 0.28218 0.837 0.120 1240.597 0.02050
0.31049 -0.20836 0.48851 0.61519 0.28407 1.107 0.121 1240.627 0.02053
0.31087 -0.20862 0.48910 0.61594 0.28595 1.026 0.117 1240.657 0.02055
0.31124 -0.20887 0.48970 0.61669 0.28784 0.964 0.121 1240.687 0.02058
0.31162 -0.20912 0.49029 0.61743 0.28973 1.001 0.123 1240.717 0.02060
0.31200 -0.20938 0.49088 0.61818 0.29161 1.083 0.120 1240.747 0.02063
0.31238 -0.20963 0.49148 0.61893 0.29350 1.002 0.116 1240.777 0.02065
0.31275 -0.20988 0.49207 0.61968 0.29539 1.027 0.124 1240.806 0.02068
0.31313 -0.21014 0.49266 0.62043 0.29727 1.051 0.125 1240.836 0.02070
0.31351 -0.21039 0.49326 0.62117 0.29916 1.051 0.125 1240.866 0.02073
0.31389 -0.21064 0.49385 0.62192 0.30105 1.038 0.124 1240.896 0.02075
0.31426 -0.21090 0.49445 0.62267 0.30293 1.074 0.126 1240.926 0.02078
0.31464 -0.21115 0.49504 0.62342 0.30482 0.909 0.117 1240.956 0.02080
0.31502 -0.21140 0.49563 0.62417 0.30671 1.017 0.116 1240.986 0.02082
0.31540 -0.21166 0.49623 0.62491 0.30859 0.731 0.114 1241.016 0.02085
0.31577 -0.21191 0.49682 0.62566 0.31048 0.743 0.115 1241.045 0.02087
0.31615 -0.21216 0.49742 0.62641 0.31237 0.697 0.112 1241.075 0.02090
0.31653 -0.21242 0.49801 0.62716 0.31426 0.862 0.122 1241.105 0.02092
0.31691 -0.21267 0.49861 0.62791 0.31614 0.696 0.112 1241.135 0.02095
0.31729 -0.21292 0.49920 0.62866 0.31803 0.870 0.115 1241.165 0.02097
0.31766 -0.21318 0.49979 0.62940 0.31992 0.862 0.115 1241.195 0.02100
0.31804 -0.21343 0.50039 0.63015 0.32181 0.765 0.116 1241.225 0.02102
0.31842 -0.21368 0.50098 0.63090 0.32369 1.014 0.130 1241.255 0.02105
0.31880 -0.21394 0.50158 0.63165 0.32558 0.812 0.119 1241.285 0.02107
0.31917 -0.21419 0.50217 0.63240 0.32747 0.792 0.118 1241.314 0.02109
0.31955 -0.21445 0.50276 0.63315 0.32936 0.944 0.127 1241.344 0.02112
0.31993 -0.21470 0.50336 0.63389 0.33125 0.909 0.118 1241.374 0.02114
0.32031 -0.21495 0.50395 0.63464 0.33313 1.014 0.130 1241.404 0.02117
0.32068 -0.21521 0.50455 0.63539 0.33502 0.945 0.119 1241.434 0.02119
0.32106 -0.21546 0.50514 0.63614 0.33691 1.038 0.117 1241.464 0.02122
0.32144 -0.21571 0.50574 0.63689 0.33880 0.942 0.119 1241.494 0.02124
0.32182 -0.21597 0.50633 0.63764 0.34069 0.980 0.114 1241.524 0.02127
0.32220 -0.21622 0.50693 0.63838 0.34258 0.790 0.118 1241.553 0.02129
0.32257 -0.21647 0.50752 0.63913 0.34446 0.835 0.121 1241.583 0.02132
0.32295 -0.21673 0.50811 0.63988 0.34635 1.071 0.119 1241.613 0.02134
0.32333 -0.21698 0.50871 0.64063 0.34824 0.813 0.119 1241.643 0.02137
0.32371 -0.21723 0.50930 0.64138 0.35013 0.743 0.115 1241.673 0.02139
0.32409 -0.21749 0.50990 0.64213 0.35202 0.765 0.116 1241.703 0.02141
0.32446 -0.21774 0.51049 0.64288 0.35391 0.765 0.116 1241.733 0.02144
0.32484 -0.21800 0.51109 0.64363 0.35580 0.896 0.124 1241.763 0.02146
0.32522 -0.21825 0.51168 0.64437 0.35769 0.826 0.120 1241.792 0.02149
0.32560 -0.21850 0.51228 0.64512 0.35957 0.943 0.119 1241.822 0.02151
0.32597 -0.21876 0.51287 0.64587 0.36146 0.860 0.122 1241.852 0.02154
0.32635 -0.21901 0.51347 0.64662 0.36335 0.896 0.117 1241.882 0.02156
0.32673 -0.21926 0.51406 0.64737 0.36524 0.742 0.115 1241.912 0.02159
0.32711 -0.21952 0.51466 0.64812 0.36713 0.991 0.122 1241.942 0.02161
0.32749 -0.21977 0.51525 0.64887 0.36902 0.826 0.120 1241.972 0.02164
0.32786 -0.22002 0.51584 0.64962 0.37091 0.980 0.121 1242.002 0.02166
0.32824 -0.22028 0.51644 0.65037 0.37280 0.828 0.120 1242.031 0.02168
0.32862 -0.22053 0.51703 0.65111 0.37469 1.051 0.118 1242.061 0.02171
0.32900 -0.22079 0.51763 0.65186 0.37658 0.898 0.124 1242.091 0.02173
0.32938 -0.22104 0.51822 0.65261 0.37847 1.205 0.126 1242.121 0.02176
0.32976 -0.22129 0.51882 0.65336 0.38036 0.982 0.129 1242.151 0.02178
0.33013 -0.22155 0.51941 0.65411 0.38225 1.041 0.117 1242.181 0.02181
0.33051 -0.22180 0.52001 0.65486 0.38414 1.099 0.120 1242.211 0.02183
0.33089 -0.22205 0.52060 0.65561 0.38603 0.865 0.122 1242.241 0.02186
0.33127 -0.22231 0.52120 0.65636 0.38792 1.040 0.125 1242.271 0.02188
0.33165 -0.22256 0.52179 0.65711 0.38981 1.099 0.128 1242.300 0.02191
0.33202 -0.22282 0.52239 0.65786 0.39170 0.828 0.120 1242.330 0.02193
0.33240 -0.22307 0.52298 0.65861 0.39359 1.123 0.122 1242.360 0.02196
0.33278 -0.22332 0.52358 0.65936 0.39548 0.969 0.128 1242.390 0.02198
0.33316 -0.22358 0.52417 0.66011 0.39737 1.244 0.121 1242.420 0.02200
0.33354 -0.22383 0.52477 0.66085 0.39926 0.949 0.119 1242.450 0.02203
0.33392 -0.22408 0.52536 0.66160 0.40115 0.924 0.118 1242.480 0.02205
0.33429 -0.22434 0.52596 0.66235 0.40304 1.265 0.122 1242.510 0.02208
0.33467 -0.22459 0.52655 0.66310 0.40493 1.018 0.116 1242.539 0.02210
0.33505 -0.22485 0.52715 0.66385 0.40682 1.042 0.125 1242.569 0.02213
0.33543 -0.22510 0.52774 0.66460 0.40871 1.159 0.124 1242.599 0.02215
0.33581 -0.22535 0.52834 0.66535 0.41060 1.114 0.122 1242.629 0.02218
0.33618 -0.22561 0.52893 0.66610 0.41249 1.043 0.125 1242.659 0.02220
0.33656 -0.22586 0.52953 0.66685 0.41438 0.961 0.128 1242.689 0.02223
0.33694 -0.22612 0.53013 0.66760 0.41628 0.887 0.123 1242.719 0.02225
0.33732 -0.22637 0.53072 0.66835 0.41817 0.924 0.118 1242.749 0.02227
0.33770 -0.22662 0.53132 0.66910 0.42006 1.192 0.126 1242.778 0.02230
0.33808 -0.22688 0.53191 0.66985 0.42195 0.936 0.120 1242.808 0.02232
0.33845 -0.22713 0.53251 0.67060 0.42384 0.939 0.128 1242.838 0.02235
0.33883 -0.22739 0.53310 0.67135 0.42573 0.930 0.119 1242.868 0.02237
0.33921 -0.22764 0.53370 0.67210 0.42762 1.064 0.126 1242.898 0.02240
0.33959 -0.22789 0.53429 0.67285 0.42951 1.110 0.122 1242.928 0.02242
0.33997 -0.22815 0.53489 0.67360 0.43141 1.049 0.126 1242.958 0.02245
0.34035 -0.22840 0.53548 0.67435 0.43330 0.938 0.119 1242.988 0.02247
0.34073 -0.22865 0.53608 0.67510 0.43519 0.859 0.123 1243.017 0.02250
0.34110 -0.22891 0.53667 0.67585 0.43708 0.938 0.127 1243.047 0.02252
0.34148 -0.22916 0.53727 0.67660 0.43897 0.689 0.113 1243.077 0.02254
0.34186 -0.22942 0.53787 0.67735 0.44087 0.953 0.120 1243.107 0.02257
0.34224 -0.22967 0.53846 0.67810 0.44276 0.804 0.119 1243.137 0.02259
0.34262 -0.22993 0.53906 0.67885 0.44465 1.008 0.124 1243.167 0.02262
0.34300 -0.23018 0.53965 0.67960 0.44654 1.045 0.124 1243.197 0.02264
0.34338 -0.23043 0.54025 0.68035 0.44843 0.866 0.123 1243.227 0.02267
0.34375 -0.23069 0.54084 0.68110 0.45033 1.021 0.117 1243.257 0.02269
0.34413 -0.23094 0.54144 0.68185 0.45222 0.960 0.121 1243.286 0.02272
0.34451 -0.23120 0.54203 0.68260 0.45411 1.042 0.132 1243.316 0.02274
0.34489 -0.23145 0.54263 0.68335 0.45600 1.195 0.125 1243.346 0.02277
0.34527 -0.23170 0.54323 0.68410 0.45790 1.101 0.128 1243.376 0.02279
0.34565 -0.23196 0.54382 0.68485 0.45979 0.889 0.124 1243.406 0.02282
0.34603 -0.23221 0.54442 0.68560 0.46168 0.748 0.115 1243.436 0.02284
0.34640 -0.23247 0.54501 0.68635 0.46357 0.853 0.114 1243.466 0.02286
0.34678 -0.23272 0.54561 0.68710 0.46547 0.935 0.119 1243.496 0.02289
0.34716 -0.23297 0.54621 0.68785 0.46736 1.282 0.130 1243.525 0.02291
0.34754 -0.23323 0.54680 0.68860 0.46925 1.208 0.126 1243.555 0.02294
0.34792 -0.23348 0.54740 0.68935 0.47114 1.033 0.125 1243.585 0.02296
0.34830 -0.23374 0.54799 0.69010 0.47304 0.889 0.116 1243.615 0.02299
0.34868 -0.23399 0.54859 0.69085 0.47493 1.068 0.119 1243.645 0.02301
0.34906 -0.23424 0.54918 0.69160 0.47682 1.078 0.127 1243.675 0.02304
0.34943 -0.23450 0.54978 0.69235 0.47872 1.009 0.124 1243.705 0.02306
0.34981 -0.23475 0.55038 0.69310 0.48061 1.032 0.132 1243.735 0.02309
0.35019 -0.23501 0.55097 0.69385 0.48250 1.033 0.118 1243.764 0.02311
0.35057 -0.23526 0.55157 0.69461 0.48440 0.795 0.118 1243.794 0.02313
0.35095 -0.23552 0.55216 0.69536 0.48629 1.126 0.129 1243.824 0.02316
0.35133 -0.23577 0.55276 0.69611 0.48818 1.009 0.124 1243.854 0.02318
0.35171 -0.23602 0.55336 0.69686 0.49008 1.103 0.121 1243.884 0.02321
0.35209 -0.23628 0.55395 0.69761 0.49197 1.080 0.120 1243.914 0.02323
0.35247 -0.23653 0.55455 0.69836 0.49387 0.904 0.117 1243.944 0.02326
0.35284 -0.23679 0.55515 0.69911 0.49576 1.034 0.124 1243.974 0.02328
0.35322 -0.23704 0.55574 0.69986 0.49765 1.138 0.123 1244.003 0.02331
0.35360 -0.23730 0.55634 0.70061 0.49955 1.008 0.116 1244.033 0.02333
0.35398 -0.23755 0.55693 0.70136 0.50144 0.962 0.120 1244.063 0.02336
0.35436 -0.23780 0.55753 0.70211 0.50334 1.067 0.127 1244.093 0.02338
0.35474 -0.23806 0.55813 0.70286 0.50523 1.198 0.126 1244.123 0.02341
0.35512 -0.23831 0.55872 0.70361 0.50712 0.964 0.121 1244.153 0.02343
0.35550 -0.23857 0.55932 0.70437 0.50902 1.034 0.125 1244.183 0.02345
0.35588 -0.23882 0.55992 0.70512 0.51091 1.023 0.125 1244.213 0.02348
0.35625 -0.23908 0.56051 0.70587 0.51281 0.984 0.129 1244.243 0.02350
0.35663 -0.23933 0.56111 0.70662 0.51470 1.000 0.124 1244.272 0.02353
0.35701 -0.23959 0.56170 0.70737 0.51660 1.058 0.119 1244.302 0.02355
0.35739 -0.23984 0.56230 0.70812 0.51849 0.749 0.116 1244.332 0.02358
0.35777 -0.24009 0.56290 0.70887 0.52039 0.918 0.127 1244.362 0.02360
0.35815 -0.24035 0.56349 0.70962 0.52228 1.059 0.126 1244.392 0.02363
0.35853 -0.24060 0.56409 0.71037 0.52418 0.949 0.121 1244.422 0.02365
0.35891 -0.24086 0.56469 0.71112 0.52607 1.164 0.125 1244.452 0.02368
0.35929 -0.24111 0.56528 0.71188 0.52797 1.133 0.141 1244.482 0.02370
0.35967 -0.24137 0.56588 0.71263 0.52986 0.974 0.121 1244.511 0.02372
0.36005 -0.24162 0.56648 0.71338 0.53176 0.975 0.122 1244.541 0.02375
0.36043 -0.24187 0.56707 0.71413 0.53365 1.009 0.124 1244.571 0.02377
