x y z dist_scaled dist_frac flux_norm sig_norm wavelength redshift
-0.05702 0.01700 0.49905 0.50258 0.00000 0.907 0.143 1236.115 0.01682
-0.05710 0.01703 0.49979 0.50333 0.00188 0.818 0.139 1236.145 0.01684
-0.05718 0.01705 0.50053 0.50407 0.00375 0.680 0.128 1236.175 0.01687
-0.05727 0.01708 0.50126 0.50481 0.00563 1.137 0.159 1236.205 0.01689
-0.05735 0.01710 0.50200 0.50556 0.00751 0.854 0.142 1236.235 0.01692
-0.05744 0.01713 0.50274 0.50630 0.00938 1.163 0.151 1236.265 0.01694
-0.05752 0.01715 0.50348 0.50705 0.01126 0.747 0.135 1236.295 0.01697
-0.05761 0.01718 0.50422 0.50779 0.01313 0.881 0.143 1236.325 0.01699
-0.05769 0.01720 0.50496 0.50853 0.01501 0.821 0.140 1236.355 0.01701
-0.05778 0.01723 0.50570 0.50928 0.01689 0.778 0.136 1236.384 0.01704
-0.05786 0.01725 0.50643 0.51002 0.01876 0.852 0.142 1236.414 0.01706
-0.05794 0.01728 0.50717 0.51077 0.02064 1.060 0.144 1236.444 0.01709
-0.05803 0.01730 0.50791 0.51151 0.02252 1.223 0.153 1236.474 0.01711
-0.05811 0.01733 0.50865 0.51225 0.02440 0.822 0.140 1236.504 0.01714
-0.05820 0.01736 0.50939 0.51300 0.02627 1.058 0.177 1236.534 0.01716
-0.05828 0.01738 0.51013 0.51374 0.02815 0.747 0.135 1236.564 0.01719
-0.05837 0.01741 0.51087 0.51449 0.03003 1.029 0.153 1236.594 0.01721
-0.05845 0.01743 0.51161 0.51523 0.03190 0.717 0.133 1236.623 0.01724
-0.05854 0.01746 0.51235 0.51597 0.03378 0.850 0.141 1236.653 0.01726
-0.05862 0.01748 0.51308 0.51672 0.03566 1.043 0.154 1236.683 0.01729
-0.05870 0.01751 0.51382 0.51746 0.03754 1.088 0.146 1236.713 0.01731
-0.05879 0.01753 0.51456 0.51821 0.03941 0.998 0.151 1236.743 0.01733
-0.05887 0.01756 0.51530 0.51895 0.04129 0.968 0.149 1236.773 0.01736
-0.05896 0.01758 0.51604 0.51970 0.04317 0.804 0.139 1236.803 0.01738
-0.05904 0.01761 0.51678 0.52044 0.04505 1.085 0.156 1236.833 0.01741
-0.05913 0.01763 0.51752 0.52118 0.04692 0.789 0.137 1236.862 0.01743
-0.05921 0.01766 0.51826 0.52193 0.04880 0.906 0.145 1236.892 0.01746
-0.05930 0.01768 0.51900 0.52267 0.05068 0.995 0.150 1236.922 0.01748
-0.05938 0.01771 0.51974 0.52342 0.05256 0.787 0.137 1236.952 0.01751
-0.05946 0.01773 0.52048 0.52416 0.05444 0.920 0.146 1236.982 0.01753
-0.05955 0.01776 0.52122 0.52491 0.05631 0.815 0.139 1237.012 0.01756
-0.05963 0.01778 0.52195 0.52565 0.05819 0.991 0.150 1237.042 0.01758
-0.05972 0.01781 0.52269 0.52640 0.06007 0.903 0.144 1237.072 0.01760
-0.05980 0.01783 0.52343 0.52714 0.06195 0.946 0.147 1237.101 0.01763
-0.05989 0.01786 0.52417 0.52788 0.06383 1.107 0.157 1237.131 0.01765
-0.05997 0.01788 0.52491 0.52863 0.06571 0.797 0.137 1237.161 0.01768
-0.06006 0.01791 0.52565 0.52937 0.06758 0.840 0.140 1237.191 0.01770
-0.06014 0.01793 0.52639 0.53012 0.06946 1.059 0.154 1237.221 0.01773
-0.06022 0.01796 0.52713 0.53086 0.07134 0.868 0.142 1237.251 0.01775
-0.06031 0.01798 0.52787 0.53161 0.07322 0.896 0.144 1237.281 0.01778
-0.06039 0.01801 0.52861 0.53235 0.07510 1.100 0.156 1237.311 0.01780
-0.06048 0.01804 0.52935 0.53310 0.07698 1.055 0.153 1237.341 0.01783
-0.06056 0.01806 0.53009 0.53384 0.07886 1.112 0.146 1237.370 0.01785
-0.06065 0.01809 0.53083 0.53459 0.08074 1.053 0.153 1237.400 0.01788
-0.06073 0.01811 0.53157 0.53533 0.08261 1.183 0.159 1237.430 0.01790
-0.06082 0.01814 0.53231 0.53608 0.08449 0.963 0.147 1237.460 0.01792
-0.06090 0.01816 0.53305 0.53682 0.08637 0.961 0.147 1237.490 0.01795
-0.06098 0.01819 0.53379 0.53757 0.08825 1.091 0.144 1237.520 0.01797
-0.06107 0.01821 0.53453 0.53831 0.09013 0.945 0.135 1237.550 0.01800
-0.06115 0.01824 0.53527 0.53906 0.09201 0.930 0.145 1237.580 0.01802
-0.06124 0.01826 0.53601 0.53980 0.09389 0.914 0.144 1237.609 0.01805
-0.06132 0.01829 0.53675 0.54055 0.09577 1.072 0.153 1237.639 0.01807
-0.06141 0.01831 0.53749 0.54129 0.09765 0.913 0.143 1237.669 0.01810
-0.06149 0.01834 0.53823 0.54204 0.09953 0.940 0.145 1237.699 0.01812
-0.06158 0.01836 0.53897 0.54278 0.10141 0.954 0.146 1237.729 0.01815
-0.06166 0.01839 0.53971 0.54353 0.10329 1.039 0.151 1237.759 0.01817
-0.06175 0.01841 0.54045 0.54427 0.10517 1.023 0.150 1237.789 0.01819
-0.06183 0.01844 0.54119 0.54502 0.10705 1.022 0.149 1237.819 0.01822
-0.06191 0.01846 0.54193 0.54576 0.10893 0.919 0.143 1237.848 0.01824
-0.06200 0.01849 0.54267 0.54651 0.11081 1.047 0.151 1237.878 0.01827
-0.06208 0.01851 0.54341 0.54725 0.11269 1.017 0.149 1237.908 0.01829
-0.06217 0.01854 0.54415 0.54800 0.11457 1.044 0.141 1237.938 0.01832
-0.06225 0.01856 0.54489 0.54874 0.11645 1.000 0.147 1237.968 0.01834
-0.06234 0.01859 0.54563 0.54949 0.11833 1.198 0.159 1237.998 0.01837
-0.06242 0.01861 0.54637 0.55024 0.12021 1.068 0.151 1238.028 0.01839
-0.06251 0.01864 0.54711 0.55098 0.12209 1.038 0.149 1238.058 0.01842
-0.06259 0.01867 0.54785 0.55173 0.12397 1.051 0.140 1238.087 0.01844
-0.06268 0.01869 0.54859 0.55247 0.12585 0.893 0.129 1238.117 0.01847
-0.06276 0.01872 0.54933 0.55322 0.12773 0.808 0.135 1238.147 0.01849
-0.06285 0.01874 0.55007 0.55396 0.12961 1.074 0.151 1238.177 0.01851
-0.06293 0.01877 0.55081 0.55471 0.13149 0.933 0.132 1238.207 0.01854
-0.06301 0.01879 0.55155 0.55545 0.13338 0.917 0.141 1238.237 0.01856
-0.06310 0.01882 0.55229 0.55620 0.13526 0.916 0.141 1238.267 0.01859
-0.06318 0.01884 0.55303 0.55695 0.13714 0.928 0.141 1238.297 0.01861
-0.06327 0.01887 0.55377 0.55769 0.13902 1.065 0.139 1238.327 0.01864
-0.06335 0.01889 0.55451 0.55844 0.14090 0.938 0.142 1238.356 0.01866
-0.06344 0.01892 0.55525 0.55918 0.14278 0.950 0.142 1238.386 0.01869
-0.06352 0.01894 0.55599 0.55993 0.14466 1.087 0.150 1238.416 0.01871
-0.06361 0.01897 0.55673 0.56067 0.14654 1.030 0.147 1238.446 0.01874
-0.06369 0.01899 0.55747 0.56142 0.14843 1.041 0.138 1238.476 0.01876
-0.06378 0.01902 0.55821 0.56217 0.15031 0.998 0.145 1238.506 0.01878
-0.06386 0.01904 0.55895 0.56291 0.15219 1.037 0.137 1238.536 0.01881
-0.06394 0.01907 0.55969 0.56366 0.15407 1.008 0.145 1238.566 0.01883
-0.06403 0.01909 0.56044 0.56440 0.15595 1.020 0.145 1238.595 0.01886
-0.06411 0.01912 0.56118 0.56515 0.15783 0.799 0.132 1238.625 0.01888
-0.06420 0.01914 0.56192 0.56590 0.15972 0.838 0.134 1238.655 0.01891
-0.06428 0.01917 0.56266 0.56664 0.16160 0.850 0.135 1238.685 0.01893
-0.06437 0.01920 0.56340 0.56739 0.16348 0.794 0.131 1238.715 0.01896
-0.06445 0.01922 0.56414 0.56813 0.16536 0.900 0.137 1238.745 0.01898
-0.06454 0.01925 0.56488 0.56888 0.16724 0.858 0.135 1238.775 0.01901
-0.06462 0.01927 0.56562 0.56963 0.16913 0.788 0.130 1238.805 0.01903
-0.06471 0.01930 0.56636 0.57037 0.17101 1.084 0.139 1238.834 0.01905
-0.06479 0.01932 0.56710 0.57112 0.17289 1.041 0.145 1238.864 0.01908
-0.06488 0.01935 0.56784 0.57186 0.17477 0.972 0.141 1238.894 0.01910
-0.06496 0.01937 0.56858 0.57261 0.17665 0.902 0.137 1238.924 0.01913
-0.06505 0.01940 0.56933 0.57336 0.17854 0.914 0.137 1238.954 0.01915
-0.06513 0.01942 0.57007 0.57410 0.18042 1.005 0.142 1238.984 0.01918
-0.06521 0.01945 0.57081 0.57485 0.18230 1.136 0.141 1239.014 0.01920
-0.06530 0.01947 0.57155 0.57560 0.18419 1.120 0.139 1239.044 0.01923
-0.06538 0.01950 0.57229 0.57634 0.18607 1.158 0.141 1239.073 0.01925
-0.06547 0.01952 0.57303 0.57709 0.18795 0.956 0.139 1239.103 0.01928
-0.06555 0.01955 0.57377 0.57784 0.18983 0.981 0.140 1239.133 0.01930
-0.06564 0.01957 0.57451 0.57858 0.19172 1.031 0.143 1239.163 0.01933
-0.06572 0.01960 0.57525 0.57933 0.19360 0.924 0.136 1239.193 0.01935
-0.06581 0.01962 0.57600 0.58007 0.19548 0.948 0.137 1239.223 0.01937
-0.06589 0.01965 0.57674 0.58082 0.19737 0.736 0.124 1239.253 0.01940
-0.06598 0.01967 0.57748 0.58157 0.19925 0.944 0.128 1239.283 0.01942
-0.06606 0.01970 0.57822 0.58231 0.20113 0.837 0.130 1239.313 0.01945
-0.06615 0.01973 0.57896 0.58306 0.20302 0.809 0.128 1239.342 0.01947
-0.06623 0.01975 0.57970 0.58381 0.20490 0.885 0.133 1239.372 0.01950
-0.06632 0.01978 0.58044 0.58455 0.20678 0.896 0.133 1239.402 0.01952
-0.06640 0.01980 0.58119 0.58530 0.20867 0.790 0.127 1239.432 0.01955
-0.06648 0.01983 0.58193 0.58605 0.21055 0.917 0.125 1239.462 0.01957
-0.06657 0.01985 0.58267 0.58679 0.21243 0.890 0.132 1239.492 0.01960
-0.06665 0.01988 0.58341 0.58754 0.21432 0.695 0.120 1239.522 0.01962
-0.06674 0.01990 0.58415 0.58829 0.21620 0.706 0.121 1239.552 0.01964
-0.06682 0.01993 0.58489 0.58904 0.21809 0.819 0.128 1239.581 0.01967
-0.06691 0.01995 0.58563 0.58978 0.21997 0.665 0.117 1239.611 0.01969
-0.06699 0.01998 0.58638 0.59053 0.22185 0.574 0.111 1239.641 0.01972
-0.06708 0.02000 0.58712 0.59128 0.22374 0.724 0.121 1239.671 0.01974
-0.06716 0.02003 0.58786 0.59202 0.22562 0.849 0.129 1239.701 0.01977
-0.06725 0.02005 0.58860 0.59277 0.22751 0.961 0.134 1239.731 0.01979
-0.06733 0.02008 0.58934 0.59352 0.22939 1.072 0.132 1239.761 0.01982
-0.06742 0.02010 0.59008 0.59426 0.23128 0.969 0.127 1239.791 0.01984
-0.06750 0.02013 0.59083 0.59501 0.23316 0.865 0.128 1239.820 0.01987
-0.06759 0.02015 0.59157 0.59576 0.23504 0.689 0.118 1239.850 0.01989
-0.06767 0.02018 0.59231 0.59650 0.23693 0.712 0.119 1239.880 0.01992
-0.06776 0.02021 0.59305 0.59725 0.23881 0.686 0.117 1239.910 0.01994
-0.06784 0.02023 0.59379 0.59800 0.24070 0.523 0.105 1239.940 0.01996
-0.06793 0.02026 0.59454 0.59875 0.24258 0.497 0.103 1239.970 0.01999
-0.06801 0.02028 0.59528 0.59949 0.24447 0.409 0.096 1240.000 0.02001
-0.06810 0.02031 0.59602 0.60024 0.24635 0.359 0.092 1240.030 0.02004
-0.06818 0.02033 0.59676 0.60099 0.24824 0.358 0.091 1240.059 0.02006
-0.06826 0.02036 0.59750 0.60174 0.25012 0.406 0.095 1240.089 0.02009
-0.06835 0.02038 0.59825 0.60248 0.25201 0.662 0.114 1240.119 0.02011
-0.06843 0.02041 0.59899 0.60323 0.25389 0.502 0.103 1240.149 0.02014
-0.06852 0.02043 0.59973 0.60398 0.25578 0.768 0.121 1240.179 0.02016
-0.06860 0.02046 0.60047 0.60472 0.25766 0.960 0.132 1240.209 0.02019
-0.06869 0.02048 0.60121 0.60547 0.25955 0.764 0.120 1240.239 0.02021
-0.06877 0.02051 0.60196 0.60622 0.26144 0.786 0.121 1240.269 0.02023
-0.06886 0.02053 0.60270 0.60697 0.26332 0.929 0.129 1240.299 0.02026
-0.06894 0.02056 0.60344 0.60771 0.26521 0.639 0.111 1240.328 0.02028
-0.06903 0.02058 0.60418 0.60846 0.26709 1.045 0.119 1240.358 0.02031
-0.06911 0.02061 0.60493 0.60921 0.26898 0.804 0.121 1240.388 0.02033
-0.06920 0.02064 0.60567 0.60996 0.27086 0.992 0.132 1240.418 0.02036
-0.06928 0.02066 0.60641 0.61070 0.27275 0.942 0.121 1240.448 0.02038
-0.06937 0.02069 0.60715 0.61145 0.27464 0.940 0.121 1240.478 0.02041
-0.06945 0.02071 0.60789 0.61220 0.27652 0.949 0.121 1240.508 0.02043
-0.06954 0.02074 0.60864 0.61295 0.27841 0.828 0.122 1240.538 0.02046
-0.06962 0.02076 0.60938 0.61370 0.28029 0.850 0.123 1240.567 0.02048
-0.06971 0.02079 0.61012 0.61444 0.28218 0.953 0.129 1240.597 0.02050
-0.06979 0.02081 0.61086 0.61519 0.28407 1.115 0.122 1240.627 0.02053
-0.06988 0.02084 0.61161 0.61594 0.28595 0.925 0.127 1240.657 0.02055
-0.06996 0.02086 0.61235 0.61669 0.28784 0.818 0.120 1240.687 0.02058
-0.07005 0.02089 0.61309 0.61743 0.28973 1.036 0.125 1240.717 0.02060
-0.07013 0.02091 0.61383 0.61818 0.29161 1.091 0.120 1240.747 0.02063
-0.07022 0.02094 0.61458 0.61893 0.29350 0.846 0.121 1240.777 0.02065
-0.07030 0.02096 0.61532 0.61968 0.29539 1.063 0.118 1240.806 0.02068
-0.07038 0.02099 0.61606 0.62043 0.29727 0.808 0.119 1240.836 0.02070
-0.07047 0.02101 0.61681 0.62117 0.29916 0.851 0.121 1240.866 0.02073
-0.07055 0.02104 0.61755 0.62192 0.30105 0.906 0.124 1240.896 0.02075
-0.07064 0.02107 0.61829 0.62267 0.30293 1.006 0.122 1240.926 0.02078
-0.07072 0.02109 0.61903 0.62342 0.30482 1.049 0.117 1240.956 0.02080
-0.07081 0.02112 0.61978 0.62417 0.30671 0.752 0.114 1240.986 0.02082
-0.07089 0.02114 0.62052 0.62491 0.30859 0.999 0.113 1241.016 0.02085
-0.07098 0.02117 0.62126 0.62566 0.31048 0.997 0.121 1241.045 0.02087
-0.07106 0.02119 0.62201 0.62641 0.31237 0.893 0.115 1241.075 0.02090
-0.07115 0.02122 0.62275 0.62716 0.31426 0.980 0.120 1241.105 0.02092
-0.07123 0.02124 0.62349 0.62791 0.31614 0.810 0.117 1241.135 0.02095
-0.07132 0.02127 0.62423 0.62866 0.31803 1.075 0.117 1241.165 0.02097
-0.07140 0.02129 0.62498 0.62940 0.31992 0.950 0.117 1241.195 0.02100
-0.07149 0.02132 0.62572 0.63015 0.32181 0.915 0.122 1241.225 0.02102
-0.07157 0.02134 0.62646 0.63090 0.32369 1.089 0.110 1241.255 0.02105
-0.07166 0.02137 0.62721 0.63165 0.32558 0.942 0.124 1241.285 0.02107
-0.07174 0.02139 0.62795 0.63240 0.32747 0.984 0.118 1241.314 0.02109
-0.07183 0.02142 0.62869 0.63315 0.32936 0.849 0.118 1241.344 0.02112
-0.07191 0.02145 0.62944 0.63389 0.33125 0.978 0.111 1241.374 0.02114
-0.07200 0.02147 0.63018 0.63464 0.33313 0.889 0.113 1241.404 0.02117
-0.07208 0.02150 0.63092 0.63539 0.33502 0.984 0.117 1241.434 0.02119
-0.07217 0.02152 0.63167 0.63614 0.33691 0.851 0.118 1241.464 0.02122
-0.07225 0.02155 0.63241 0.63689 0.33880 0.805 0.108 1241.494 0.02124
-0.07234 0.02157 0.63315 0.63764 0.34069 0.987 0.111 1241.524 0.02127
-0.07242 0.02160 0.63390 0.63838 0.34258 0.899 0.113 1241.553 0.02129
-0.07251 0.02162 0.63464 0.63913 0.34446 0.896 0.112 1241.583 0.02132
-0.07259 0.02165 0.63538 0.63988 0.34635 0.744 0.110 1241.613 0.02134
-0.07268 0.02167 0.63613 0.64063 0.34824 0.859 0.110 1241.643 0.02137
-0.07276 0.02170 0.63687 0.64138 0.35013 0.697 0.107 1241.673 0.02139
-0.07285 0.02172 0.63761 0.64213 0.35202 0.929 0.107 1241.703 0.02141
-0.07293 0.02175 0.63836 0.64288 0.35391 1.033 0.111 1241.733 0.02144
-0.07302 0.02177 0.63910 0.64363 0.35580 1.073 0.107 1241.763 0.02146
-0.07310 0.02180 0.63984 0.64437 0.35769 1.091 0.114 1241.792 0.02149
-0.07319 0.02182 0.64059 0.64512 0.35957 0.846 0.115 1241.822 0.02151
-0.07327 0.02185 0.64133 0.64587 0.36146 1.022 0.110 1241.852 0.02154
-0.07336 0.02188 0.64207 0.64662 0.36335 0.977 0.108 1241.882 0.02156
-0.07344 0.02190 0.64282 0.64737 0.36524 1.048 0.112 1241.912 0.02159
-0.07353 0.02193 0.64356 0.64812 0.36713 1.035 0.104 1241.942 0.02161
-0.07361 0.02195 0.64430 0.64887 0.36902 1.095 0.107 1241.972 0.02164
-0.07370 0.02198 0.64505 0.64962 0.37091 0.760 0.109 1242.002 0.02166
-0.07378 0.02200 0.64579 0.65037 0.37280 0.975 0.108 1242.031 0.02168
-0.07387 0.02203 0.64654 0.65111 0.37469 0.869 0.115 1242.061 0.02171
-0.07395 0.02205 0.64728 0.65186 0.37658 0.901 0.134 1242.091 0.02173
-0.07404 0.02208 0.64802 0.65261 0.37847 1.009 0.108 1242.121 0.02176
-0.07412 0.02210 0.64877 0.65336 0.38036 0.852 0.107 1242.151 0.02178
-0.07421 0.02213 0.64951 0.65411 0.38225 0.952 0.112 1242.181 0.02181
-0.07429 0.02215 0.65026 0.65486 0.38414 1.021 0.115 1242.211 0.02183
-0.07438 0.02218 0.65100 0.65561 0.38603 0.795 0.103 1242.241 0.02186
-0.07446 0.02221 0.65174 0.65636 0.38792 0.702 0.104 1242.271 0.02188
-0.07455 0.02223 0.65249 0.65711 0.38981 0.750 0.100 1242.300 0.02191
-0.07463 0.02226 0.65323 0.65786 0.39170 0.547 0.094 1242.330 0.02193
-0.07472 0.02228 0.65398 0.65861 0.39359 0.596 0.097 1242.360 0.02196
-0.07480 0.02231 0.65472 0.65936 0.39548 0.665 0.101 1242.390 0.02198
-0.07489 0.02233 0.65546 0.66011 0.39737 0.653 0.100 1242.420 0.02200
-0.07497 0.02236 0.65621 0.66085 0.39926 0.582 0.096 1242.450 0.02203
-0.07506 0.02238 0.65695 0.66160 0.40115 0.531 0.092 1242.480 0.02205
-0.07514 0.02241 0.65770 0.66235 0.40304 0.410 0.084 1242.510 0.02208
-0.07523 0.02243 0.65844 0.66310 0.40493 0.340 0.078 1242.539 0.02210
-0.07531 0.02246 0.65918 0.66385 0.40682 0.191 0.064 1242.569 0.02213
-0.07540 0.02248 0.65993 0.66460 0.40871 0.141 0.058 1242.599 0.02215
-0.07548 0.02251 0.66067 0.66535 0.41060 0.111 0.054 1242.629 0.02218
-0.07557 0.02253 0.66142 0.66610 0.41249 0.091 0.051 1242.659 0.02220
-0.07565 0.02256 0.66216 0.66685 0.41438 0.062 0.047 1242.689 0.02223
-0.07574 0.02259 0.66291 0.66760 0.41628 0.139 0.057 1242.719 0.02225
-0.07582 0.02261 0.66365 0.66835 0.41817 0.246 0.069 1242.749 0.02227
-0.07591 0.02264 0.66439 0.66910 0.42006 0.304 0.074 1242.778 0.02230
-0.07599 0.02266 0.66514 0.66985 0.42195 0.351 0.078 1242.808 0.02232
-0.07608 0.02269 0.66588 0.67060 0.42384 0.496 0.088 1242.838 0.02235
-0.07616 0.02271 0.66663 0.67135 0.42573 0.687 0.100 1242.868 0.02237
-0.07625 0.02274 0.66737 0.67210 0.42762 0.637 0.097 1242.898 0.02240
-0.07633 0.02276 0.66812 0.67285 0.42951 0.798 0.100 1242.928 0.02242
-0.07642 0.02279 0.66886 0.67360 0.43141 0.844 0.096 1242.958 0.02245
-0.07650 0.02281 0.66961 0.67435 0.43330 0.928 0.101 1242.988 0.02247
-0.07659 0.02284 0.67035 0.67510 0.43519 0.850 0.103 1243.017 0.02250
-0.07667 0.02286 0.67110 0.67585 0.43708 0.817 0.094 1243.047 0.02252
-0.07676 0.02289 0.67184 0.67660 0.43897 1.112 0.109 1243.077 0.02254
-0.07684 0.02292 0.67259 0.67735 0.44087 1.143 0.104 1243.107 0.02257
-0.07693 0.02294 0.67333 0.67810 0.44276 0.916 0.098 1243.137 0.02259
-0.07701 0.02297 0.67407 0.67885 0.44465 1.121 0.103 1243.167 0.02262
-0.07710 0.02299 0.67482 0.67960 0.44654 1.039 0.099 1243.197 0.02264
-0.07718 0.02302 0.67556 0.68035 0.44843 1.001 0.103 1243.227 0.02267
-0.07727 0.02304 0.67631 0.68110 0.45033 1.089 0.101 1243.257 0.02269
-0.07735 0.02307 0.67705 0.68185 0.45222 0.927 0.099 1243.286 0.02272
-0.07744 0.02309 0.67780 0.68260 0.45411 1.085 0.106 1243.316 0.02274
-0.07752 0.02312 0.67854 0.68335 0.45600 0.898 0.097 1243.346 0.02277
-0.07761 0.02314 0.67929 0.68410 0.45790 1.285 0.109 1243.376 0.02279
-0.07769 0.02317 0.68003 0.68485 0.45979 0.985 0.096 1243.406 0.02282
-0.07778 0.02319 0.68078 0.68560 0.46168 0.878 0.096 1243.436 0.02284
-0.07786 0.02322 0.68152 0.68635 0.46357 0.983 0.095 1243.466 0.02286
-0.07795 0.02325 0.68227 0.68710 0.46547 0.920 0.092 1243.496 0.02289
-0.07803 0.02327 0.68301 0.68785 0.46736 0.941 0.099 1243.525 0.02291
-0.07812 0.02330 0.68376 0.68860 0.46925 0.951 0.099 1243.555 0.02294
-0.07820 0.02332 0.68450 0.68935 0.47114 0.912 0.092 1243.585 0.02296
-0.07829 0.02335 0.68525 0.69010 0.47304 1.011 0.102 1243.615 0.02299
-0.07837 0.02337 0.68599 0.69085 0.47493 1.054 0.098 1243.645 0.02301
-0.07846 0.02340 0.68674 0.69160 0.47682 1.015 0.096 1243.675 0.02304
-0.07854 0.02342 0.68748 0.69235 0.47872 0.814 0.097 1243.705 0.02306
-0.07863 0.02345 0.68823 0.69310 0.48061 1.011 0.096 1243.735 0.02309
-0.07872 0.02347 0.68898 0.69385 0.48250 1.009 0.096 1243.764 0.02311
-0.07880 0.02350 0.68972 0.69461 0.48440 1.006 0.095 1243.794 0.02313
-0.07889 0.02352 0.69047 0.69536 0.48629 1.048 0.097 1243.824 0.02316
-0.07897 0.02355 0.69121 0.69611 0.48818 1.073 0.098 1243.854 0.02318
-0.07906 0.02358 0.69196 0.69686 0.49008 1.031 0.127 1243.884 0.02321
-0.07914 0.02360 0.69270 0.69761 0.49197 0.989 0.100 1243.914 0.02323
-0.07923 0.02363 0.69345 0.69836 0.49387 1.164 0.102 1243.944 0.02326
-0.07931 0.02365 0.69419 0.69911 0.49576 0.958 0.098 1243.974 0.02328
-0.07940 0.02368 0.69494 0.69986 0.49765 0.965 0.093 1244.003 0.02331
-0.07948 0.02370 0.69568 0.70061 0.49955 0.865 0.098 1244.033 0.02333
-0.07957 0.02373 0.69643 0.70136 0.50144 0.960 0.092 1244.063 0.02336
-0.07965 0.02375 0.69718 0.70211 0.50334 0.915 0.096 1244.093 0.02338
-0.07974 0.02378 0.69792 0.70286 0.50523 1.044 0.096 1244.123 0.02341
-0.07982 0.02380 0.69867 0.70361 0.50712 0.869 0.153 1244.153 0.02343
-0.07991 0.02383 0.69941 0.70437 0.50902 0.731 0.157 1244.183 0.02345
-0.07999 0.02385 0.70016 0.70512 0.51091 1.107 0.185 1244.213 0.02348
-0.08008 0.02388 0.70090 0.70587 0.51281 0.968 0.174 1244.243 0.02350
-0.08016 0.02391 0.70165 0.70662 0.51470 0.743 0.157 1244.272 0.02353
-0.08025 0.02393 0.70240 0.70737 0.51660 0.484 0.135 1244.302 0.02355
-0.08033 0.02396 0.70314 0.70812 0.51849 0.692 0.154 1244.332 0.02358
-0.08042 0.02398 0.70389 0.70887 0.52039 0.274 0.110 1244.362 0.02360
-0.08050 0.02401 0.70463 0.70962 0.52228 0.224 0.106 1244.392 0.02363
-0.08059 0.02403 0.70538 0.71037 0.52418 0.150 0.092 1244.422 0.02365
-0.08067 0.02406 0.70612 0.71112 0.52607 0.124 0.087 1244.452 0.02368
-0.08076 0.02408 0.70687 0.71188 0.52797 0.194 0.097 1244.482 0.02370
-0.08084 0.02411 0.70762 0.71263 0.52986 0.298 0.115 1244.511 0.02372
-0.08093 0.02413 0.70836 0.71338 0.53176 0.348 0.121 1244.541 0.02375
-0.08102 0.02416 0.70911 0.71413 0.53365 0.226 0.104 1244.571 0.02377
