x y z dist_scaled dist_frac flux_norm wavelength redshift
-0.38635 -0.01325 0.32116 0.50258 0.00000 0.919 1236.115 0.01682
-0.38692 -0.01327 0.32164 0.50333 0.00188 1.177 1236.145 0.01684
-0.38749 -0.01329 0.32212 0.50407 0.00375 1.313 1236.175 0.01687
-0.38807 -0.01331 0.32259 0.50481 0.00563 1.164 1236.205 0.01689
-0.38864 -0.01333 0.32307 0.50556 0.00751 0.755 1236.235 0.01692
-0.38921 -0.01335 0.32354 0.50630 0.00938 1.116 1236.265 0.01694
-0.38978 -0.01337 0.32402 0.50705 0.01126 1.179 1236.295 0.01697
-0.39035 -0.01338 0.32449 0.50779 0.01313 0.908 1236.325 0.01699
-0.39093 -0.01340 0.32497 0.50853 0.01501 1.021 1236.355 0.01701
-0.39150 -0.01342 0.32544 0.50928 0.01689 1.056 1236.384 0.01704
-0.39207 -0.01344 0.32592 0.51002 0.01876 1.450 1236.414 0.01706
-0.39264 -0.01346 0.32639 0.51077 0.02064 1.000 1236.444 0.01709
-0.39321 -0.01348 0.32687 0.51151 0.02252 1.028 1236.474 0.01711
-0.39378 -0.01350 0.32734 0.51225 0.02440 1.058 1236.504 0.01714
-0.39436 -0.01352 0.32782 0.51300 0.02627 0.819 1236.534 0.01716
-0.39493 -0.01354 0.32830 0.51374 0.02815 1.120 1236.564 0.01719
-0.39550 -0.01356 0.32877 0.51449 0.03003 0.970 1236.594 0.01721
-0.39607 -0.01358 0.32925 0.51523 0.03190 0.908 1236.623 0.01724
-0.39665 -0.01360 0.32972 0.51597 0.03378 0.879 1236.653 0.01726
-0.39722 -0.01362 0.33020 0.51672 0.03566 0.936 1236.683 0.01729
-0.39779 -0.01364 0.33067 0.51746 0.03754 1.268 1236.713 0.01731
-0.39836 -0.01366 0.33115 0.51821 0.03941 1.149 1236.743 0.01733
-0.39893 -0.01368 0.33162 0.51895 0.04129 1.243 1236.773 0.01736
-0.39951 -0.01370 0.33210 0.51970 0.04317 0.941 1236.803 0.01738
-0.40008 -0.01372 0.33258 0.52044 0.04505 0.881 1236.833 0.01741
-0.40065 -0.01374 0.33305 0.52118 0.04692 0.941 1236.862 0.01743
-0.40122 -0.01376 0.33353 0.52193 0.04880 0.729 1236.892 0.01746
-0.40179 -0.01378 0.33400 0.52267 0.05068 0.791 1236.922 0.01748
-0.40237 -0.01380 0.33448 0.52342 0.05256 1.121 1236.952 0.01751
-0.40294 -0.01382 0.33495 0.52416 0.05444 1.088 1236.982 0.01753
-0.40351 -0.01384 0.33543 0.52491 0.05631 0.518 1237.012 0.01756
-0.40408 -0.01386 0.33591 0.52565 0.05819 0.728 1237.042 0.01758
-0.40466 -0.01388 0.33638 0.52640 0.06007 0.729 1237.072 0.01760
-0.40523 -0.01389 0.33686 0.52714 0.06195 1.271 1237.101 0.01763
-0.40580 -0.01391 0.33733 0.52788 0.06383 1.300 1237.131 0.01765
-0.40637 -0.01393 0.33781 0.52863 0.06571 0.669 1237.161 0.01768
-0.40695 -0.01395 0.33829 0.52937 0.06758 1.150 1237.191 0.01770
-0.40752 -0.01397 0.33876 0.53012 0.06946 1.002 1237.221 0.01773
-0.40809 -0.01399 0.33924 0.53086 0.07134 0.761 1237.251 0.01775
-0.40866 -0.01401 0.33971 0.53161 0.07322 1.003 1237.281 0.01778
-0.40924 -0.01403 0.34019 0.53235 0.07510 1.063 1237.311 0.01780
-0.40981 -0.01405 0.34066 0.53310 0.07698 1.093 1237.341 0.01783
-0.41038 -0.01407 0.34114 0.53384 0.07886 0.821 1237.370 0.01785
-0.41095 -0.01409 0.34162 0.53459 0.08074 1.181 1237.400 0.01788
-0.41153 -0.01411 0.34209 0.53533 0.08261 1.000 1237.430 0.01790
-0.41210 -0.01413 0.34257 0.53608 0.08449 0.967 1237.460 0.01792
-0.41267 -0.01415 0.34304 0.53682 0.08637 0.878 1237.490 0.01795
-0.41324 -0.01417 0.34352 0.53757 0.08825 0.878 1237.520 0.01797
-0.41382 -0.01419 0.34400 0.53831 0.09013 1.210 1237.550 0.01800
-0.41439 -0.01421 0.34447 0.53906 0.09201 0.758 1237.580 0.01802
-0.41496 -0.01423 0.34495 0.53980 0.09389 1.180 1237.609 0.01805
-0.41554 -0.01425 0.34543 0.54055 0.09577 0.790 1237.639 0.01807
-0.41611 -0.01427 0.34590 0.54129 0.09765 1.390 1237.669 0.01810
-0.41668 -0.01429 0.34638 0.54204 0.09953 1.123 1237.699 0.01812
-0.41725 -0.01431 0.34685 0.54278 0.10141 0.851 1237.729 0.01815
-0.41783 -0.01433 0.34733 0.54353 0.10329 0.760 1237.759 0.01817
-0.41840 -0.01435 0.34781 0.54427 0.10517 0.909 1237.789 0.01819
-0.41897 -0.01437 0.34828 0.54502 0.10705 1.090 1237.819 0.01822
-0.41955 -0.01439 0.34876 0.54576 0.10893 0.881 1237.848 0.01824
-0.42012 -0.01441 0.34924 0.54651 0.11081 0.791 1237.878 0.01827
-0.42069 -0.01442 0.34971 0.54725 0.11269 1.270 1237.908 0.01829
-0.42126 -0.01444 0.35019 0.54800 0.11457 1.211 1237.938 0.01832
-0.42184 -0.01446 0.35066 0.54874 0.11645 0.880 1237.968 0.01834
-0.42241 -0.01448 0.35114 0.54949 0.11833 0.910 1237.998 0.01837
-0.42298 -0.01450 0.35162 0.55024 0.12021 0.940 1238.028 0.01839
-0.42356 -0.01452 0.35209 0.55098 0.12209 1.061 1238.058 0.01842
-0.42413 -0.01454 0.35257 0.55173 0.12397 0.730 1238.087 0.01844
-0.42470 -0.01456 0.35305 0.55247 0.12585 0.819 1238.117 0.01847
-0.42528 -0.01458 0.35352 0.55322 0.12773 0.997 1238.147 0.01849
-0.42585 -0.01460 0.35400 0.55396 0.12961 0.939 1238.177 0.01851
-0.42642 -0.01462 0.35448 0.55471 0.13149 1.088 1238.207 0.01854
-0.42700 -0.01464 0.35495 0.55545 0.13338 1.237 1238.237 0.01856
-0.42757 -0.01466 0.35543 0.55620 0.13526 0.938 1238.267 0.01859
-0.42814 -0.01468 0.35590 0.55695 0.13714 1.205 1238.297 0.01861
-0.42871 -0.01470 0.35638 0.55769 0.13902 0.847 1238.327 0.01864
-0.42929 -0.01472 0.35686 0.55844 0.14090 1.266 1238.356 0.01866
-0.42986 -0.01474 0.35733 0.55918 0.14278 1.086 1238.386 0.01869
-0.43043 -0.01476 0.35781 0.55993 0.14466 0.903 1238.416 0.01871
-0.43101 -0.01478 0.35829 0.56067 0.14654 1.171 1238.446 0.01874
-0.43158 -0.01480 0.35876 0.56142 0.14843 1.142 1238.476 0.01876
-0.43215 -0.01482 0.35924 0.56217 0.15031 1.293 1238.506 0.01878
-0.43273 -0.01484 0.35972 0.56291 0.15219 0.813 1238.536 0.01881
-0.43330 -0.01486 0.36019 0.56366 0.15407 0.873 1238.566 0.01883
-0.43387 -0.01488 0.36067 0.56440 0.15595 0.812 1238.595 0.01886
-0.43445 -0.01490 0.36115 0.56515 0.15783 0.570 1238.625 0.01888
-0.43502 -0.01492 0.36162 0.56590 0.15972 0.721 1238.655 0.01891
-0.43560 -0.01494 0.36210 0.56664 0.16160 0.990 1238.685 0.01893
-0.43617 -0.01496 0.36258 0.56739 0.16348 0.782 1238.715 0.01896
-0.43674 -0.01498 0.36305 0.56813 0.16536 0.574 1238.745 0.01898
-0.43732 -0.01499 0.36353 0.56888 0.16724 0.999 1238.775 0.01901
-0.43789 -0.01501 0.36401 0.56963 0.16913 0.863 1238.805 0.01903
-0.43846 -0.01503 0.36448 0.57037 0.17101 0.820 1238.834 0.01905
-0.43904 -0.01505 0.36496 0.57112 0.17289 0.905 1238.864 0.01908
-0.43961 -0.01507 0.36544 0.57186 0.17477 0.996 1238.894 0.01910
-0.44018 -0.01509 0.36592 0.57261 0.17665 1.100 1238.924 0.01913
-0.44076 -0.01511 0.36639 0.57336 0.17854 0.540 1238.954 0.01915
-0.44133 -0.01513 0.36687 0.57410 0.18042 1.044 1238.984 0.01918
-0.44190 -0.01515 0.36735 0.57485 0.18230 1.020 1239.014 0.01920
-0.44248 -0.01517 0.36782 0.57560 0.18419 1.008 1239.044 0.01923
-0.44305 -0.01519 0.36830 0.57634 0.18607 0.879 1239.073 0.01925
-0.44363 -0.01521 0.36878 0.57709 0.18795 0.924 1239.103 0.01928
-0.44420 -0.01523 0.36925 0.57784 0.18983 0.802 1239.133 0.01930
-0.44477 -0.01525 0.36973 0.57858 0.19172 1.129 1239.163 0.01933
-0.44535 -0.01527 0.37021 0.57933 0.19360 1.035 1239.193 0.01935
-0.44592 -0.01529 0.37068 0.58007 0.19548 1.049 1239.223 0.01937
-0.44650 -0.01531 0.37116 0.58082 0.19737 0.872 1239.253 0.01940
-0.44707 -0.01533 0.37164 0.58157 0.19925 0.962 1239.283 0.01942
-0.44764 -0.01535 0.37212 0.58231 0.20113 1.408 1239.313 0.01945
-0.44822 -0.01537 0.37259 0.58306 0.20302 0.753 1239.342 0.01947
-0.44879 -0.01539 0.37307 0.58381 0.20490 0.633 1239.372 0.01950
-0.44937 -0.01541 0.37355 0.58455 0.20678 0.987 1239.402 0.01952
-0.44994 -0.01543 0.37402 0.58530 0.20867 0.691 1239.432 0.01955
-0.45051 -0.01545 0.37450 0.58605 0.21055 0.842 1239.462 0.01957
-0.45109 -0.01547 0.37498 0.58679 0.21243 1.080 1239.492 0.01960
-0.45166 -0.01549 0.37546 0.58754 0.21432 0.753 1239.522 0.01962
-0.45224 -0.01551 0.37593 0.58829 0.21620 0.750 1239.552 0.01964
-0.45281 -0.01553 0.37641 0.58904 0.21809 0.957 1239.581 0.01967
-0.45338 -0.01555 0.37689 0.58978 0.21997 0.869 1239.611 0.01969
-0.45396 -0.01557 0.37737 0.59053 0.22185 0.960 1239.641 0.01972
-0.45453 -0.01559 0.37784 0.59128 0.22374 1.050 1239.671 0.01974
-0.45511 -0.01560 0.37832 0.59202 0.22562 1.081 1239.701 0.01977
-0.45568 -0.01562 0.37880 0.59277 0.22751 0.813 1239.731 0.01979
-0.45625 -0.01564 0.37927 0.59352 0.22939 1.079 1239.761 0.01982
-0.45683 -0.01566 0.37975 0.59426 0.23128 0.901 1239.791 0.01984
-0.45740 -0.01568 0.38023 0.59501 0.23316 0.840 1239.820 0.01987
-0.45798 -0.01570 0.38071 0.59576 0.23504 1.078 1239.850 0.01989
-0.45855 -0.01572 0.38118 0.59650 0.23693 0.959 1239.880 0.01992
-0.45913 -0.01574 0.38166 0.59725 0.23881 0.899 1239.910 0.01994
-0.45970 -0.01576 0.38214 0.59800 0.24070 0.989 1239.940 0.01996
-0.46027 -0.01578 0.38262 0.59875 0.24258 1.079 1239.970 0.01999
-0.46085 -0.01580 0.38309 0.59949 0.24447 0.812 1240.000 0.02001
-0.46142 -0.01582 0.38357 0.60024 0.24635 1.378 1240.030 0.02004
-0.46200 -0.01584 0.38405 0.60099 0.24824 0.814 1240.059 0.02006
-0.46257 -0.01586 0.38453 0.60174 0.25012 0.991 1240.089 0.02009
-0.46315 -0.01588 0.38500 0.60248 0.25201 0.903 1240.119 0.02011
-0.46372 -0.01590 0.38548 0.60323 0.25389 0.783 1240.149 0.02014
-0.46430 -0.01592 0.38596 0.60398 0.25578 0.811 1240.179 0.02016
-0.46487 -0.01594 0.38644 0.60472 0.25766 0.871 1240.209 0.02019
-0.46544 -0.01596 0.38691 0.60547 0.25955 1.080 1240.239 0.02021
-0.46602 -0.01598 0.38739 0.60622 0.26144 0.752 1240.269 0.02023
-0.46659 -0.01600 0.38787 0.60697 0.26332 1.019 1240.299 0.02026
-0.46717 -0.01602 0.38835 0.60771 0.26521 0.781 1240.328 0.02028
-0.46774 -0.01604 0.38882 0.60846 0.26709 1.107 1240.358 0.02031
-0.46832 -0.01606 0.38930 0.60921 0.26898 0.930 1240.388 0.02033
-0.46889 -0.01608 0.38978 0.60996 0.27086 1.106 1240.418 0.02036
-0.46947 -0.01610 0.39026 0.61070 0.27275 0.779 1240.448 0.02038
-0.47004 -0.01612 0.39074 0.61145 0.27464 1.015 1240.478 0.02041
-0.47062 -0.01614 0.39121 0.61220 0.27652 0.958 1240.508 0.02043
-0.47119 -0.01616 0.39169 0.61295 0.27841 0.901 1240.538 0.02046
-0.47177 -0.01618 0.39217 0.61370 0.28029 0.753 1240.567 0.02048
-0.47234 -0.01620 0.39265 0.61444 0.28218 1.020 1240.597 0.02050
-0.47292 -0.01622 0.39312 0.61519 0.28407 1.167 1240.627 0.02053
-0.47349 -0.01624 0.39360 0.61594 0.28595 0.960 1240.657 0.02055
-0.47407 -0.01626 0.39408 0.61669 0.28784 0.901 1240.687 0.02058
-0.47464 -0.01627 0.39456 0.61743 0.28973 0.898 1240.717 0.02060
-0.47522 -0.01629 0.39504 0.61818 0.29161 0.956 1240.747 0.02063
-0.47579 -0.01631 0.39551 0.61893 0.29350 0.927 1240.777 0.02065
-0.47637 -0.01633 0.39599 0.61968 0.29539 0.927 1240.806 0.02068
-0.47694 -0.01635 0.39647 0.62043 0.29727 0.838 1240.836 0.02070
-0.47752 -0.01637 0.39695 0.62117 0.29916 1.075 1240.866 0.02073
-0.47809 -0.01639 0.39743 0.62192 0.30105 1.282 1240.896 0.02075
-0.47867 -0.01641 0.39790 0.62267 0.30293 1.196 1240.926 0.02078
-0.47924 -0.01643 0.39838 0.62342 0.30482 0.928 1240.956 0.02080
-0.47982 -0.01645 0.39886 0.62417 0.30671 1.047 1240.986 0.02082
-0.48039 -0.01647 0.39934 0.62491 0.30859 1.193 1241.016 0.02085
-0.48097 -0.01649 0.39982 0.62566 0.31048 0.987 1241.045 0.02087
-0.48154 -0.01651 0.40029 0.62641 0.31237 1.081 1241.075 0.02090
-0.48212 -0.01653 0.40077 0.62716 0.31426 1.127 1241.105 0.02092
-0.48269 -0.01655 0.40125 0.62791 0.31614 0.921 1241.135 0.02095
-0.48327 -0.01657 0.40173 0.62866 0.31803 1.053 1241.165 0.02097
-0.48384 -0.01659 0.40221 0.62940 0.31992 0.676 1241.195 0.02100
-0.48442 -0.01661 0.40269 0.63015 0.32181 1.009 1241.225 0.02102
-0.48499 -0.01663 0.40316 0.63090 0.32369 1.147 1241.255 0.02105
-0.48557 -0.01665 0.40364 0.63165 0.32558 1.100 1241.285 0.02107
-0.48614 -0.01667 0.40412 0.63240 0.32747 1.208 1241.314 0.02109
-0.48672 -0.01669 0.40460 0.63315 0.32936 1.317 1241.344 0.02112
-0.48729 -0.01671 0.40508 0.63389 0.33125 1.367 1241.374 0.02114
-0.48787 -0.01673 0.40555 0.63464 0.33313 1.195 1241.404 0.02117
-0.48844 -0.01675 0.40603 0.63539 0.33502 1.226 1241.434 0.02119
-0.48902 -0.01677 0.40651 0.63614 0.33691 1.049 1241.464 0.02122
-0.48960 -0.01679 0.40699 0.63689 0.33880 0.878 1241.494 0.02124
-0.49017 -0.01681 0.40747 0.63764 0.34069 0.896 1241.524 0.02127
-0.49075 -0.01683 0.40795 0.63838 0.34258 0.867 1241.553 0.02129
-0.49132 -0.01685 0.40842 0.63913 0.34446 1.102 1241.583 0.02132
-0.49190 -0.01687 0.40890 0.63988 0.34635 1.014 1241.613 0.02134
-0.49247 -0.01689 0.40938 0.64063 0.34824 0.925 1241.643 0.02137
-0.49305 -0.01691 0.40986 0.64138 0.35013 0.689 1241.673 0.02139
-0.49362 -0.01693 0.41034 0.64213 0.35202 1.188 1241.703 0.02141
-0.49420 -0.01695 0.41082 0.64288 0.35391 0.749 1241.733 0.02144
-0.49477 -0.01697 0.41130 0.64363 0.35580 0.955 1241.763 0.02146
-0.49535 -0.01698 0.41177 0.64437 0.35769 0.572 1241.792 0.02149
-0.49593 -0.01700 0.41225 0.64512 0.35957 0.864 1241.822 0.02151
-0.49650 -0.01702 0.41273 0.64587 0.36146 0.980 1241.852 0.02154
-0.49708 -0.01704 0.41321 0.64662 0.36335 1.038 1241.882 0.02156
-0.49765 -0.01706 0.41369 0.64737 0.36524 0.772 1241.912 0.02159
-0.49823 -0.01708 0.41417 0.64812 0.36713 1.299 1241.942 0.02161
-0.49880 -0.01710 0.41465 0.64887 0.36902 0.978 1241.972 0.02164
-0.49938 -0.01712 0.41512 0.64962 0.37091 0.976 1242.002 0.02166
-0.49996 -0.01714 0.41560 0.65037 0.37280 1.094 1242.031 0.02168
-0.50053 -0.01716 0.41608 0.65111 0.37469 1.094 1242.061 0.02171
-0.50111 -0.01718 0.41656 0.65186 0.37658 0.887 1242.091 0.02173
-0.50168 -0.01720 0.41704 0.65261 0.37847 0.858 1242.121 0.02176
-0.50226 -0.01722 0.41752 0.65336 0.38036 1.063 1242.151 0.02178
-0.50284 -0.01724 0.41800 0.65411 0.38225 0.947 1242.181 0.02181
-0.50341 -0.01726 0.41847 0.65486 0.38414 0.859 1242.211 0.02183
-0.50399 -0.01728 0.41895 0.65561 0.38603 0.978 1242.241 0.02186
-0.50456 -0.01730 0.41943 0.65636 0.38792 0.888 1242.271 0.02188
-0.50514 -0.01732 0.41991 0.65711 0.38981 0.801 1242.300 0.02191
-0.50572 -0.01734 0.42039 0.65786 0.39170 0.773 1242.330 0.02193
-0.50629 -0.01736 0.42087 0.65861 0.39359 1.096 1242.360 0.02196
-0.50687 -0.01738 0.42135 0.65936 0.39548 1.210 1242.390 0.02198
-0.50744 -0.01740 0.42183 0.66011 0.39737 0.858 1242.420 0.02200
-0.50802 -0.01742 0.42231 0.66085 0.39926 0.798 1242.450 0.02203
-0.50860 -0.01744 0.42278 0.66160 0.40115 1.092 1242.480 0.02205
-0.50917 -0.01746 0.42326 0.66235 0.40304 0.946 1242.510 0.02208
-0.50975 -0.01748 0.42374 0.66310 0.40493 0.682 1242.539 0.02210
-0.51032 -0.01750 0.42422 0.66385 0.40682 0.683 1242.569 0.02213
-0.51090 -0.01752 0.42470 0.66460 0.40871 0.887 1242.599 0.02215
-0.51148 -0.01754 0.42518 0.66535 0.41060 0.798 1242.629 0.02218
-0.51205 -0.01756 0.42566 0.66610 0.41249 1.030 1242.659 0.02220
-0.51263 -0.01758 0.42614 0.66685 0.41438 0.971 1242.689 0.02223
-0.51321 -0.01760 0.42662 0.66760 0.41628 0.825 1242.719 0.02225
-0.51378 -0.01762 0.42710 0.66835 0.41817 1.117 1242.749 0.02227
-0.51436 -0.01764 0.42757 0.66910 0.42006 0.912 1242.778 0.02230
-0.51493 -0.01766 0.42805 0.66985 0.42195 1.033 1242.808 0.02232
-0.51551 -0.01768 0.42853 0.67060 0.42384 0.946 1242.838 0.02235
-0.51609 -0.01770 0.42901 0.67135 0.42573 1.062 1242.868 0.02237
-0.51666 -0.01772 0.42949 0.67210 0.42762 0.914 1242.898 0.02240
-0.51724 -0.01774 0.42997 0.67285 0.42951 1.265 1242.928 0.02242
-0.51782 -0.01776 0.43045 0.67360 0.43141 0.739 1242.958 0.02245
-0.51839 -0.01777 0.43093 0.67435 0.43330 0.797 1242.988 0.02247
-0.51897 -0.01779 0.43141 0.67510 0.43519 1.118 1243.017 0.02250
-0.51955 -0.01781 0.43189 0.67585 0.43708 1.089 1243.047 0.02252
-0.52012 -0.01783 0.43237 0.67660 0.43897 1.114 1243.077 0.02254
-0.52070 -0.01785 0.43285 0.67735 0.44087 0.970 1243.107 0.02257
-0.52127 -0.01787 0.43332 0.67810 0.44276 1.229 1243.137 0.02259
-0.52185 -0.01789 0.43380 0.67885 0.44465 1.024 1243.167 0.02262
-0.52243 -0.01791 0.43428 0.67960 0.44654 0.908 1243.197 0.02264
-0.52300 -0.01793 0.43476 0.68035 0.44843 1.022 1243.227 0.02267
-0.52358 -0.01795 0.43524 0.68110 0.45033 0.762 1243.257 0.02269
-0.52416 -0.01797 0.43572 0.68185 0.45222 1.227 1243.286 0.02272
-0.52473 -0.01799 0.43620 0.68260 0.45411 1.139 1243.316 0.02274
-0.52531 -0.01801 0.43668 0.68335 0.45600 1.023 1243.346 0.02277
-0.52589 -0.01803 0.43716 0.68410 0.45790 1.284 1243.376 0.02279
-0.52646 -0.01805 0.43764 0.68485 0.45979 0.937 1243.406 0.02282
-0.52704 -0.01807 0.43812 0.68560 0.46168 0.822 1243.436 0.02284
-0.52762 -0.01809 0.43860 0.68635 0.46357 1.173 1243.466 0.02286
-0.52820 -0.01811 0.43908 0.68710 0.46547 1.028 1243.496 0.02289
-0.52877 -0.01813 0.43956 0.68785 0.46736 0.941 1243.525 0.02291
-0.52935 -0.01815 0.44004 0.68860 0.46925 1.027 1243.555 0.02294
-0.52993 -0.01817 0.44052 0.68935 0.47114 0.882 1243.585 0.02296
-0.53050 -0.01819 0.44100 0.69010 0.47304 0.968 1243.615 0.02299
-0.53108 -0.01821 0.44147 0.69085 0.47493 0.823 1243.645 0.02301
-0.53166 -0.01823 0.44195 0.69160 0.47682 0.996 1243.675 0.02304
-0.53223 -0.01825 0.44243 0.69235 0.47872 0.850 1243.705 0.02306
-0.53281 -0.01827 0.44291 0.69310 0.48061 0.966 1243.735 0.02309
-0.53339 -0.01829 0.44339 0.69385 0.48250 0.821 1243.764 0.02311
-0.53396 -0.01831 0.44387 0.69461 0.48440 1.082 1243.794 0.02313
-0.53454 -0.01833 0.44435 0.69536 0.48629 0.763 1243.824 0.02316
-0.53512 -0.01835 0.44483 0.69611 0.48818 0.876 1243.854 0.02318
-0.53570 -0.01837 0.44531 0.69686 0.49008 1.222 1243.884 0.02321
-0.53627 -0.01839 0.44579 0.69761 0.49197 1.135 1243.914 0.02323
-0.53685 -0.01841 0.44627 0.69836 0.49387 1.048 1243.944 0.02326
-0.53743 -0.01843 0.44675 0.69911 0.49576 1.046 1243.974 0.02328
-0.53800 -0.01845 0.44723 0.69986 0.49765 1.031 1244.003 0.02331
-0.53858 -0.01847 0.44771 0.70061 0.49955 0.899 1244.033 0.02333
-0.53916 -0.01849 0.44819 0.70136 0.50144 0.741 1244.063 0.02336
-0.53974 -0.01851 0.44867 0.70211 0.50334 1.103 1244.093 0.02338
-0.54031 -0.01853 0.44915 0.70286 0.50523 1.112 1244.123 0.02341
-0.54089 -0.01855 0.44963 0.70361 0.50712 0.945 1244.153 0.02343
-0.54147 -0.01857 0.45011 0.70437 0.50902 1.511 1244.183 0.02345
-0.54204 -0.01859 0.45059 0.70512 0.51091 0.745 1244.213 0.02348
-0.54262 -0.01861 0.45107 0.70587 0.51281 1.072 1244.243 0.02350
-0.54320 -0.01863 0.45155 0.70662 0.51470 1.061 1244.272 0.02353
-0.54378 -0.01865 0.45203 0.70737 0.51660 1.124 1244.302 0.02355
-0.54435 -0.01867 0.45251 0.70812 0.51849 0.954 1244.332 0.02358
-0.54493 -0.01868 0.45299 0.70887 0.52039 0.741 1244.362 0.02360
-0.54551 -0.01870 0.45347 0.70962 0.52228 0.900 1244.392 0.02363
-0.54609 -0.01872 0.45395 0.71037 0.52418 1.043 1244.422 0.02365
-0.54666 -0.01874 0.45443 0.71112 0.52607 1.013 1244.452 0.02368
-0.54724 -0.01876 0.45491 0.71188 0.52797 0.964 1244.482 0.02370
-0.54782 -0.01878 0.45539 0.71263 0.52986 1.210 1244.511 0.02372
-0.54840 -0.01880 0.45587 0.71338 0.53176 1.063 1244.541 0.02375
-0.54897 -0.01882 0.45635 0.71413 0.53365 1.205 1244.571 0.02377
-0.54955 -0.01884 0.45683 0.71488 0.53555 0.879 1244.601 0.02380
-0.55013 -0.01886 0.45731 0.71563 0.53744 0.897 1244.631 0.02382
-0.55071 -0.01888 0.45779 0.71638 0.53934 0.972 1244.661 0.02385
-0.55128 -0.01890 0.45827 0.71714 0.54123 0.828 1244.691 0.02387
-0.55186 -0.01892 0.45875 0.71789 0.54313 1.016 1244.721 0.02390
-0.55244 -0.01894 0.45923 0.71864 0.54502 1.029 1244.750 0.02392
-0.55302 -0.01896 0.45971 0.71939 0.54692 1.020 1244.780 0.02395
-0.55359 -0.01898 0.46019 0.72014 0.54882 1.083 1244.810 0.02397
-0.55417 -0.01900 0.46067 0.72089 0.55071 0.902 1244.840 0.02400
-0.55475 -0.01902 0.46115 0.72164 0.55261 1.073 1244.870 0.02402
-0.55533 -0.01904 0.46163 0.72240 0.55450 0.987 1244.900 0.02404
-0.55591 -0.01906 0.46211 0.72315 0.55640 1.016 1244.930 0.02407
-0.55648 -0.01908 0.46259 0.72390 0.55829 1.046 1244.960 0.02409
-0.55706 -0.01910 0.46307 0.72465 0.56019 1.045 1244.989 0.02412
-0.55764 -0.01912 0.46355 0.72540 0.56209 0.902 1245.019 0.02414
-0.55822 -0.01914 0.46403 0.72615 0.56398 0.903 1245.049 0.02417
-0.55879 -0.01916 0.46451 0.72691 0.56588 1.018 1245.079 0.02419
-0.55937 -0.01918 0.46499 0.72766 0.56778 1.046 1245.109 0.02422
-0.55995 -0.01920 0.46547 0.72841 0.56967 0.730 1245.139 0.02424
-0.56053 -0.01922 0.46596 0.72916 0.57157 0.988 1245.169 0.02427
-0.56111 -0.01924 0.46644 0.72991 0.57347 1.332 1245.199 0.02429
-0.56168 -0.01926 0.46692 0.73066 0.57536 1.332 1245.229 0.02431
