x y z dist_scaled dist_frac flux_norm sig_norm wavelength redshift
0.34417 -0.06871 0.35974 0.50258 0.00000 0.944 0.402 1236.115 0.01682
0.34468 -0.06882 0.36027 0.50333 0.00188 1.291 0.444 1236.145 0.01684
0.34519 -0.06892 0.36081 0.50407 0.00375 1.081 0.419 1236.175 0.01687
0.34570 -0.06902 0.36134 0.50481 0.00563 1.225 0.434 1236.205 0.01689
0.34621 -0.06912 0.36187 0.50556 0.00751 1.016 0.412 1236.235 0.01692
0.34672 -0.06922 0.36240 0.50630 0.00938 1.014 0.413 1236.265 0.01694
0.34723 -0.06932 0.36294 0.50705 0.01126 0.733 0.372 1236.295 0.01697
0.34774 -0.06943 0.36347 0.50779 0.01313 1.232 0.437 1236.325 0.01699
0.34824 -0.06953 0.36400 0.50853 0.01501 0.950 0.402 1236.355 0.01701
0.34875 -0.06963 0.36453 0.50928 0.01689 0.879 0.396 1236.384 0.01704
0.34926 -0.06973 0.36507 0.51002 0.01876 0.883 0.396 1236.414 0.01706
0.34977 -0.06983 0.36560 0.51077 0.02064 1.164 0.430 1236.444 0.01709
0.35028 -0.06993 0.36613 0.51151 0.02252 1.096 0.423 1236.474 0.01711
0.35079 -0.07004 0.36666 0.51225 0.02440 1.379 0.454 1236.504 0.01714
0.35130 -0.07014 0.36720 0.51300 0.02627 1.097 0.423 1236.534 0.01716
0.35181 -0.07024 0.36773 0.51374 0.02815 1.093 0.421 1236.564 0.01719
0.35232 -0.07034 0.36826 0.51449 0.03003 1.310 0.446 1236.594 0.01721
0.35283 -0.07044 0.36880 0.51523 0.03190 0.742 0.378 1236.623 0.01724
0.35334 -0.07054 0.36933 0.51597 0.03378 1.241 0.441 1236.653 0.01726
0.35385 -0.07065 0.36986 0.51672 0.03566 1.027 0.416 1236.683 0.01729
0.35436 -0.07075 0.37039 0.51746 0.03754 1.100 0.425 1236.713 0.01731
0.35487 -0.07085 0.37093 0.51821 0.03941 0.959 0.408 1236.743 0.01733
0.35538 -0.07095 0.37146 0.51895 0.04129 0.886 0.398 1236.773 0.01736
0.35589 -0.07105 0.37199 0.51970 0.04317 1.387 0.457 1236.803 0.01738
0.35640 -0.07115 0.37252 0.52044 0.04505 0.893 0.399 1236.833 0.01741
0.35691 -0.07126 0.37306 0.52118 0.04692 0.964 0.406 1236.862 0.01743
0.35742 -0.07136 0.37359 0.52193 0.04880 0.603 0.360 1236.892 0.01746
0.35793 -0.07146 0.37412 0.52267 0.05068 1.391 0.459 1236.922 0.01748
0.35844 -0.07156 0.37466 0.52342 0.05256 1.394 0.459 1236.952 0.01751
0.35895 -0.07166 0.37519 0.52416 0.05444 0.607 0.361 1236.982 0.01753
0.35946 -0.07177 0.37572 0.52491 0.05631 0.750 0.380 1237.012 0.01756
0.35997 -0.07187 0.37625 0.52565 0.05819 0.970 0.410 1237.042 0.01758
0.36048 -0.07197 0.37679 0.52640 0.06007 0.392 0.325 1237.072 0.01760
0.36099 -0.07207 0.37732 0.52714 0.06195 0.531 0.350 1237.101 0.01763
0.36150 -0.07217 0.37785 0.52788 0.06383 0.456 0.339 1237.131 0.01765
0.36201 -0.07227 0.37839 0.52863 0.06571 0.454 0.340 1237.161 0.01768
0.36252 -0.07238 0.37892 0.52937 0.06758 0.598 0.362 1237.191 0.01770
0.36303 -0.07248 0.37945 0.53012 0.06946 0.450 0.339 1237.221 0.01773
0.36354 -0.07258 0.37999 0.53086 0.07134 0.884 0.402 1237.251 0.01775
0.36405 -0.07268 0.38052 0.53161 0.07322 1.098 0.430 1237.281 0.01778
0.36456 -0.07278 0.38105 0.53235 0.07510 1.022 0.420 1237.311 0.01780
0.36507 -0.07289 0.38159 0.53310 0.07698 0.595 0.363 1237.341 0.01783
0.36558 -0.07299 0.38212 0.53384 0.07886 0.808 0.394 1237.370 0.01785
0.36609 -0.07309 0.38265 0.53459 0.08074 1.018 0.421 1237.400 0.01788
0.36660 -0.07319 0.38318 0.53533 0.08261 1.307 0.452 1237.430 0.01790
0.36711 -0.07329 0.38372 0.53608 0.08449 1.736 0.498 1237.460 0.01792
0.36762 -0.07339 0.38425 0.53682 0.08637 0.948 0.413 1237.490 0.01795
0.36813 -0.07350 0.38478 0.53757 0.08825 1.163 0.439 1237.520 0.01797
0.36864 -0.07360 0.38532 0.53831 0.09013 0.803 0.392 1237.550 0.01800
0.36915 -0.07370 0.38585 0.53906 0.09201 0.586 0.364 1237.580 0.01802
0.36966 -0.07380 0.38638 0.53980 0.09389 1.089 0.432 1237.609 0.01805
0.37017 -0.07390 0.38692 0.54055 0.09577 0.731 0.384 1237.639 0.01807
0.37068 -0.07401 0.38745 0.54129 0.09765 1.092 0.431 1237.669 0.01810
0.37119 -0.07411 0.38798 0.54204 0.09953 0.950 0.414 1237.699 0.01812
0.37170 -0.07421 0.38852 0.54278 0.10141 0.877 0.404 1237.729 0.01815
0.37221 -0.07431 0.38905 0.54353 0.10329 1.385 0.464 1237.759 0.01817
0.37272 -0.07441 0.38958 0.54427 0.10517 1.017 0.423 1237.789 0.01819
0.37323 -0.07452 0.39012 0.54502 0.10705 0.727 0.386 1237.819 0.01822
0.37374 -0.07462 0.39065 0.54576 0.10893 0.508 0.353 1237.848 0.01824
0.37425 -0.07472 0.39118 0.54651 0.11081 0.508 0.354 1237.878 0.01827
0.37476 -0.07482 0.39172 0.54725 0.11269 0.725 0.384 1237.908 0.01829
0.37527 -0.07492 0.39225 0.54800 0.11457 0.580 0.367 1237.938 0.01832
0.37578 -0.07502 0.39279 0.54874 0.11645 0.939 0.415 1237.968 0.01834
0.37629 -0.07513 0.39332 0.54949 0.11833 0.866 0.406 1237.998 0.01837
0.37680 -0.07523 0.39385 0.55024 0.12021 0.649 0.377 1238.028 0.01839
0.37731 -0.07533 0.39439 0.55098 0.12209 0.721 0.388 1238.058 0.01842
0.37782 -0.07543 0.39492 0.55173 0.12397 0.719 0.388 1238.087 0.01844
0.37833 -0.07553 0.39545 0.55247 0.12585 0.432 0.343 1238.117 0.01847
0.37885 -0.07564 0.39599 0.55322 0.12773 0.582 0.365 1238.147 0.01849
0.37936 -0.07574 0.39652 0.55396 0.12961 0.655 0.377 1238.177 0.01851
0.37987 -0.07584 0.39705 0.55471 0.13149 0.802 0.398 1238.207 0.01854
0.38038 -0.07594 0.39759 0.55545 0.13338 0.578 0.366 1238.237 0.01856
0.38089 -0.07604 0.39812 0.55620 0.13526 0.579 0.365 1238.267 0.01859
0.38140 -0.07615 0.39866 0.55695 0.13714 1.018 0.426 1238.297 0.01861
0.38191 -0.07625 0.39919 0.55769 0.13902 0.513 0.357 1238.327 0.01864
0.38242 -0.07635 0.39972 0.55844 0.14090 0.222 0.302 1238.356 0.01866
0.38293 -0.07645 0.40026 0.55918 0.14278 0.442 0.341 1238.386 0.01869
0.38344 -0.07655 0.40079 0.55993 0.14466 0.299 0.319 1238.416 0.01871
0.38395 -0.07666 0.40132 0.56067 0.14654 0.950 0.416 1238.446 0.01874
0.38446 -0.07676 0.40186 0.56142 0.14843 0.807 0.397 1238.476 0.01876
0.38497 -0.07686 0.40239 0.56217 0.15031 0.882 0.409 1238.506 0.01878
0.38548 -0.07696 0.40293 0.56291 0.15219 0.658 0.377 1238.536 0.01881
0.38599 -0.07706 0.40346 0.56366 0.15407 0.804 0.399 1238.566 0.01883
0.38651 -0.07717 0.40399 0.56440 0.15595 0.509 0.355 1238.595 0.01886
0.38702 -0.07727 0.40453 0.56515 0.15783 1.460 0.475 1238.625 0.01888
0.38753 -0.07737 0.40506 0.56590 0.15972 0.948 0.417 1238.655 0.01891
0.38804 -0.07747 0.40560 0.56664 0.16160 1.019 0.427 1238.685 0.01893
0.38855 -0.07757 0.40613 0.56739 0.16348 1.534 0.484 1238.715 0.01896
0.38906 -0.07768 0.40666 0.56813 0.16536 0.733 0.390 1238.745 0.01898
0.38957 -0.07778 0.40720 0.56888 0.16724 0.803 0.398 1238.775 0.01901
0.39008 -0.07788 0.40773 0.56963 0.16913 0.956 0.418 1238.805 0.01903
0.39059 -0.07798 0.40827 0.57037 0.17101 1.322 0.460 1238.834 0.01905
0.39110 -0.07808 0.40880 0.57112 0.17289 1.176 0.444 1238.864 0.01908
0.39161 -0.07819 0.40933 0.57186 0.17477 0.663 0.380 1238.894 0.01910
0.39213 -0.07829 0.40987 0.57261 0.17665 1.033 0.425 1238.924 0.01913
0.39264 -0.07839 0.41040 0.57336 0.17854 1.328 0.461 1238.954 0.01915
0.39315 -0.07849 0.41094 0.57410 0.18042 0.891 0.410 1238.984 0.01918
0.39366 -0.07859 0.41147 0.57485 0.18230 0.522 0.356 1239.014 0.01920
0.39417 -0.07870 0.41201 0.57560 0.18419 0.527 0.470 1239.044 0.01923
0.39468 -0.07880 0.41254 0.57634 0.18607 0.526 0.358 1239.073 0.01925
0.39519 -0.07890 0.41307 0.57709 0.18795 0.532 0.357 1239.103 0.01928
0.39570 -0.07900 0.41361 0.57784 0.18983 0.459 0.346 1239.133 0.01930
0.39621 -0.07910 0.41414 0.57858 0.19172 1.339 0.463 1239.163 0.01933
0.39673 -0.07921 0.41468 0.57933 0.19360 0.531 0.359 1239.193 0.01935
0.39724 -0.07931 0.41521 0.58007 0.19548 0.824 0.401 1239.223 0.01937
0.39775 -0.07941 0.41575 0.58082 0.19737 1.757 0.500 1239.253 0.01940
0.39826 -0.07951 0.41628 0.58157 0.19925 1.177 0.437 1239.283 0.01942
0.39877 -0.07961 0.41681 0.58231 0.20113 1.539 0.478 1239.313 0.01945
0.39928 -0.07972 0.41735 0.58306 0.20302 0.619 0.371 1239.342 0.01947
0.39979 -0.07982 0.41788 0.58381 0.20490 1.175 0.438 1239.372 0.01950
0.40030 -0.07992 0.41842 0.58455 0.20678 0.906 0.411 1239.402 0.01952
0.40082 -0.08002 0.41895 0.58530 0.20867 1.055 0.419 1239.432 0.01955
0.40133 -0.08012 0.41949 0.58605 0.21055 0.984 0.419 1239.462 0.01957
0.40184 -0.08023 0.42002 0.58679 0.21243 1.616 0.484 1239.492 0.01960
0.40235 -0.08033 0.42056 0.58754 0.21432 0.953 0.411 1239.522 0.01962
0.40286 -0.08043 0.42109 0.58829 0.21620 0.569 0.360 1239.552 0.01964
0.40337 -0.08053 0.42162 0.58904 0.21809 0.783 0.391 1239.581 0.01967
0.40388 -0.08064 0.42216 0.58978 0.21997 0.482 0.347 1239.611 0.01969
0.40440 -0.08074 0.42269 0.59053 0.22185 0.696 0.379 1239.641 0.01972
0.40491 -0.08084 0.42323 0.59128 0.22374 0.819 0.399 1239.671 0.01974
0.40542 -0.08094 0.42376 0.59202 0.22562 0.889 0.411 1239.701 0.01977
0.40593 -0.08104 0.42430 0.59277 0.22751 0.660 0.379 1239.731 0.01979
0.40644 -0.08115 0.42483 0.59352 0.22939 0.882 0.412 1239.761 0.01982
0.40695 -0.08125 0.42537 0.59426 0.23128 1.032 0.429 1239.791 0.01984
0.40746 -0.08135 0.42590 0.59501 0.23316 1.407 0.471 1239.820 0.01987
0.40798 -0.08145 0.42644 0.59576 0.23504 0.814 0.403 1239.850 0.01989
0.40849 -0.08155 0.42697 0.59650 0.23693 1.328 0.464 1239.880 0.01992
0.40900 -0.08166 0.42751 0.59725 0.23881 0.741 0.392 1239.910 0.01994
0.40951 -0.08176 0.42804 0.59800 0.24070 0.962 0.420 1239.940 0.01996
0.41002 -0.08186 0.42858 0.59875 0.24258 0.959 0.421 1239.970 0.01999
0.41053 -0.08196 0.42911 0.59949 0.24447 0.522 0.360 1240.000 0.02001
0.41105 -0.08207 0.42965 0.60024 0.24635 0.670 0.382 1240.030 0.02004
0.41156 -0.08217 0.43018 0.60099 0.24824 1.402 0.472 1240.059 0.02006
0.41207 -0.08227 0.43071 0.60174 0.25012 1.035 0.431 1240.089 0.02009
0.41258 -0.08237 0.43125 0.60248 0.25201 0.735 0.393 1240.119 0.02011
0.41309 -0.08247 0.43178 0.60323 0.25389 0.588 0.370 1240.149 0.02014
0.41361 -0.08258 0.43232 0.60398 0.25578 0.810 0.399 1240.179 0.02016
0.41412 -0.08268 0.43285 0.60472 0.25766 0.519 0.360 1240.209 0.02019
0.41463 -0.08278 0.43339 0.60547 0.25955 0.886 0.412 1240.239 0.02021
0.41514 -0.08288 0.43392 0.60622 0.26144 0.968 0.422 1240.269 0.02023
0.41565 -0.08299 0.43446 0.60697 0.26332 1.114 0.439 1240.299 0.02026
0.41616 -0.08309 0.43499 0.60771 0.26521 0.891 0.409 1240.328 0.02028
0.41668 -0.08319 0.43553 0.60846 0.26709 1.330 0.463 1240.358 0.02031
0.41719 -0.08329 0.43606 0.60921 0.26898 0.958 0.422 1240.388 0.02033
0.41770 -0.08339 0.43660 0.60996 0.27086 0.445 0.347 1240.418 0.02036
0.41821 -0.08350 0.43714 0.61070 0.27275 1.040 0.431 1240.448 0.02038
0.41872 -0.08360 0.43767 0.61145 0.27464 0.379 0.335 1240.478 0.02041
0.41924 -0.08370 0.43821 0.61220 0.27652 0.889 0.411 1240.508 0.02043
0.41975 -0.08380 0.43874 0.61295 0.27841 0.748 0.393 1240.538 0.02046
0.42026 -0.08390 0.43928 0.61370 0.28029 0.826 0.400 1240.567 0.02048
0.42077 -0.08401 0.43981 0.61444 0.28218 1.267 0.455 1240.597 0.02050
0.42128 -0.08411 0.44035 0.61519 0.28407 1.414 0.472 1240.627 0.02053
0.42180 -0.08421 0.44088 0.61594 0.28595 1.194 0.446 1240.657 0.02055
0.42231 -0.08431 0.44142 0.61669 0.28784 1.342 0.464 1240.687 0.02058
0.42282 -0.08442 0.44195 0.61743 0.28973 1.119 0.439 1240.717 0.02060
0.42333 -0.08452 0.44249 0.61818 0.29161 1.053 0.430 1240.747 0.02063
0.42384 -0.08462 0.44302 0.61893 0.29350 1.195 0.447 1240.777 0.02065
0.42436 -0.08472 0.44356 0.61968 0.29539 1.336 0.463 1240.806 0.02068
0.42487 -0.08483 0.44409 0.62043 0.29727 0.967 0.418 1240.836 0.02070
0.42538 -0.08493 0.44463 0.62117 0.29916 0.898 0.412 1240.866 0.02073
0.42589 -0.08503 0.44516 0.62192 0.30105 1.631 0.496 1240.896 0.02075
0.42641 -0.08513 0.44570 0.62267 0.30293 1.187 0.448 1240.926 0.02078
0.42692 -0.08523 0.44624 0.62342 0.30482 1.340 0.464 1240.956 0.02080
0.42743 -0.08534 0.44677 0.62417 0.30671 0.822 0.399 1240.986 0.02082
0.42794 -0.08544 0.44731 0.62491 0.30859 0.746 0.391 1241.016 0.02085
0.42846 -0.08554 0.44784 0.62566 0.31048 1.483 0.480 1241.045 0.02087
0.42897 -0.08564 0.44838 0.62641 0.31237 1.110 0.438 1241.075 0.02090
0.42948 -0.08575 0.44891 0.62716 0.31426 1.107 0.439 1241.105 0.02092
0.42999 -0.08585 0.44945 0.62791 0.31614 1.769 0.508 1241.135 0.02095
0.43050 -0.08595 0.44998 0.62866 0.31803 1.476 0.479 1241.165 0.02097
0.43102 -0.08605 0.45052 0.62940 0.31992 1.481 0.475 1241.195 0.02100
0.43153 -0.08615 0.45106 0.63015 0.32181 1.848 0.515 1241.225 0.02102
0.43204 -0.08626 0.45159 0.63090 0.32369 1.174 0.448 1241.255 0.02105
0.43255 -0.08636 0.45213 0.63165 0.32558 1.033 0.430 1241.285 0.02107
0.43307 -0.08646 0.45266 0.63240 0.32747 1.179 0.448 1241.314 0.02109
0.43358 -0.08656 0.45320 0.63315 0.32936 0.739 0.391 1241.344 0.02112
0.43409 -0.08667 0.45373 0.63389 0.33125 0.515 0.359 1241.374 0.02114
0.43460 -0.08677 0.45427 0.63464 0.33313 0.811 0.400 1241.404 0.02117
0.43512 -0.08687 0.45480 0.63539 0.33502 1.034 0.430 1241.434 0.02119
0.43563 -0.08697 0.45534 0.63614 0.33691 1.099 0.438 1241.464 0.02122
0.43614 -0.08708 0.45588 0.63689 0.33880 0.443 0.348 1241.494 0.02124
0.43665 -0.08718 0.45641 0.63764 0.34069 0.884 0.411 1241.524 0.02127
0.43717 -0.08728 0.45695 0.63838 0.34258 0.880 0.412 1241.553 0.02129
0.43768 -0.08738 0.45748 0.63913 0.34446 1.033 0.430 1241.583 0.02132
0.43819 -0.08749 0.45802 0.63988 0.34635 0.955 0.419 1241.613 0.02134
0.43871 -0.08759 0.45856 0.64063 0.34824 0.951 0.421 1241.643 0.02137
0.43922 -0.08769 0.45909 0.64138 0.35013 1.248 0.456 1241.673 0.02139
0.43973 -0.08779 0.45963 0.64213 0.35202 1.254 0.451 1241.703 0.02141
0.44024 -0.08789 0.46016 0.64288 0.35391 0.953 0.419 1241.733 0.02144
0.44076 -0.08800 0.46070 0.64363 0.35580 1.099 0.438 1241.763 0.02146
0.44127 -0.08810 0.46124 0.64437 0.35769 1.033 0.430 1241.792 0.02149
0.44178 -0.08820 0.46177 0.64512 0.35957 1.178 0.447 1241.822 0.02151
0.44229 -0.08830 0.46231 0.64587 0.36146 1.182 0.447 1241.852 0.02154
0.44281 -0.08841 0.46284 0.64662 0.36335 1.547 0.487 1241.882 0.02156
0.44332 -0.08851 0.46338 0.64737 0.36524 1.401 0.471 1241.912 0.02159
0.44383 -0.08861 0.46392 0.64812 0.36713 0.886 0.408 1241.942 0.02161
0.44435 -0.08871 0.46445 0.64887 0.36902 1.030 0.430 1241.972 0.02164
0.44486 -0.08882 0.46499 0.64962 0.37091 1.624 0.494 1242.002 0.02166
0.44537 -0.08892 0.46552 0.65037 0.37280 1.248 0.454 1242.031 0.02168
0.44589 -0.08902 0.46606 0.65111 0.37469 1.032 0.429 1242.061 0.02171
0.44640 -0.08912 0.46660 0.65186 0.37658 1.401 0.470 1242.091 0.02173
0.44691 -0.08923 0.46713 0.65261 0.37847 0.519 0.357 1242.121 0.02176
0.44742 -0.08933 0.46767 0.65336 0.38036 0.742 0.390 1242.151 0.02178
0.44794 -0.08943 0.46821 0.65411 0.38225 0.818 0.401 1242.181 0.02181
0.44845 -0.08953 0.46874 0.65486 0.38414 0.520 0.358 1242.211 0.02183
0.44896 -0.08964 0.46928 0.65561 0.38603 0.814 0.398 1242.241 0.02186
0.44948 -0.08974 0.46981 0.65636 0.38792 1.768 0.508 1242.271 0.02188
0.44999 -0.08984 0.47035 0.65711 0.38981 0.959 0.420 1242.300 0.02191
0.45050 -0.08994 0.47089 0.65786 0.39170 1.106 0.437 1242.330 0.02193
0.45102 -0.09005 0.47142 0.65861 0.39359 1.331 0.462 1242.360 0.02196
0.45153 -0.09015 0.47196 0.65936 0.39548 1.257 0.454 1242.390 0.02198
0.45204 -0.09025 0.47250 0.66011 0.39737 1.044 0.425 1242.420 0.02200
0.45256 -0.09035 0.47303 0.66085 0.39926 0.819 0.401 1242.450 0.02203
0.45307 -0.09046 0.47357 0.66160 0.40115 0.894 0.409 1242.480 0.02205
0.45358 -0.09056 0.47410 0.66235 0.40304 0.887 0.408 1242.510 0.02208
0.45409 -0.09066 0.47464 0.66310 0.40493 0.964 0.419 1242.539 0.02210
0.45461 -0.09076 0.47518 0.66385 0.40682 1.476 0.478 1242.569 0.02213
0.45512 -0.09086 0.47571 0.66460 0.40871 1.183 0.445 1242.599 0.02215
0.45563 -0.09097 0.47625 0.66535 0.41060 0.964 0.419 1242.629 0.02218
0.45615 -0.09107 0.47679 0.66610 0.41249 1.109 0.434 1242.659 0.02220
0.45666 -0.09117 0.47732 0.66685 0.41438 1.106 0.437 1242.689 0.02223
0.45717 -0.09127 0.47786 0.66760 0.41628 1.106 0.435 1242.719 0.02225
0.45769 -0.09138 0.47840 0.66835 0.41817 0.812 0.400 1242.749 0.02227
0.45820 -0.09148 0.47893 0.66910 0.42006 1.178 0.445 1242.778 0.02230
0.45871 -0.09158 0.47947 0.66985 0.42195 1.253 0.454 1242.808 0.02232
0.45923 -0.09168 0.48001 0.67060 0.42384 1.399 0.469 1242.838 0.02235
0.45974 -0.09179 0.48054 0.67135 0.42573 0.817 0.399 1242.868 0.02237
0.46026 -0.09189 0.48108 0.67210 0.42762 1.029 0.428 1242.898 0.02240
0.46077 -0.09199 0.48162 0.67285 0.42951 1.106 0.434 1242.928 0.02242
0.46128 -0.09209 0.48215 0.67360 0.43141 0.961 0.419 1242.958 0.02245
0.46180 -0.09220 0.48269 0.67435 0.43330 0.664 0.378 1242.988 0.02247
0.46231 -0.09230 0.48323 0.67510 0.43519 0.887 0.409 1243.017 0.02250
0.46282 -0.09240 0.48376 0.67585 0.43708 0.735 0.386 1243.047 0.02252
0.46334 -0.09251 0.48430 0.67660 0.43897 1.034 0.427 1243.077 0.02254
0.46385 -0.09261 0.48484 0.67735 0.44087 0.962 0.415 1243.107 0.02257
0.46436 -0.09271 0.48537 0.67810 0.44276 0.671 0.379 1243.137 0.02259
0.46488 -0.09281 0.48591 0.67885 0.44465 0.884 0.409 1243.167 0.02262
0.46539 -0.09292 0.48645 0.67960 0.44654 0.516 0.352 1243.197 0.02264
0.46590 -0.09302 0.48699 0.68035 0.44843 0.662 0.380 1243.227 0.02267
0.46642 -0.09312 0.48752 0.68110 0.45033 1.026 0.427 1243.257 0.02269
0.46693 -0.09322 0.48806 0.68185 0.45222 1.178 0.444 1243.286 0.02272
0.46745 -0.09333 0.48860 0.68260 0.45411 0.667 0.379 1243.316 0.02274
0.46796 -0.09343 0.48913 0.68335 0.45600 0.960 0.418 1243.346 0.02277
0.46847 -0.09353 0.48967 0.68410 0.45790 1.027 0.427 1243.376 0.02279
0.46899 -0.09363 0.49021 0.68485 0.45979 1.104 0.435 1243.406 0.02282
0.46950 -0.09374 0.49074 0.68560 0.46168 1.397 0.468 1243.436 0.02284
0.47001 -0.09384 0.49128 0.68635 0.46357 0.810 0.399 1243.466 0.02286
0.47053 -0.09394 0.49182 0.68710 0.46547 1.027 0.426 1243.496 0.02289
0.47104 -0.09404 0.49236 0.68785 0.46736 1.028 0.426 1243.525 0.02291
0.47156 -0.09415 0.49289 0.68860 0.46925 1.243 0.452 1243.555 0.02294
0.47207 -0.09425 0.49343 0.68935 0.47114 0.658 0.377 1243.585 0.02296
0.47258 -0.09435 0.49397 0.69010 0.47304 1.315 0.460 1243.615 0.02299
0.47310 -0.09445 0.49450 0.69085 0.47493 0.876 0.407 1243.645 0.02301
0.47361 -0.09456 0.49504 0.69160 0.47682 0.879 0.407 1243.675 0.02304
0.47413 -0.09466 0.49558 0.69235 0.47872 0.731 0.388 1243.705 0.02306
0.47464 -0.09476 0.49612 0.69310 0.48061 0.810 0.399 1243.735 0.02309
0.47515 -0.09486 0.49665 0.69385 0.48250 0.878 0.408 1243.764 0.02311
0.47567 -0.09497 0.49719 0.69461 0.48440 1.314 0.459 1243.794 0.02313
0.47618 -0.09507 0.49773 0.69536 0.48629 0.741 0.388 1243.824 0.02316
0.47670 -0.09517 0.49826 0.69611 0.48818 1.318 0.459 1243.854 0.02318
0.47721 -0.09527 0.49880 0.69686 0.49008 1.028 0.426 1243.884 0.02321
0.47772 -0.09538 0.49934 0.69761 0.49197 0.588 0.367 1243.914 0.02323
0.47824 -0.09548 0.49988 0.69836 0.49387 0.531 0.352 1243.944 0.02326
0.47875 -0.09558 0.50041 0.69911 0.49576 1.158 0.435 1243.974 0.02328
0.47927 -0.09569 0.50095 0.69986 0.49765 0.949 0.408 1244.003 0.02331
0.47978 -0.09579 0.50149 0.70061 0.49955 1.256 0.443 1244.033 0.02333
0.48029 -0.09589 0.50203 0.70136 0.50144 0.966 0.416 1244.063 0.02336
0.48081 -0.09599 0.50256 0.70211 0.50334 0.999 0.408 1244.093 0.02338
0.48132 -0.09610 0.50310 0.70286 0.50523 1.098 0.425 1244.123 0.02341
0.48184 -0.09620 0.50364 0.70361 0.50712 1.341 0.458 1244.153 0.02343
0.48235 -0.09630 0.50418 0.70437 0.50902 0.942 0.406 1244.183 0.02345
0.48287 -0.09640 0.50471 0.70512 0.51091 1.283 0.443 1244.213 0.02348
0.48338 -0.09651 0.50525 0.70587 0.51281 1.754 0.495 1244.243 0.02350
0.48389 -0.09661 0.50579 0.70662 0.51470 0.805 0.385 1244.272 0.02353
0.48441 -0.09671 0.50633 0.70737 0.51660 1.180 0.433 1244.302 0.02355
0.48492 -0.09681 0.50686 0.70812 0.51849 0.510 0.340 1244.332 0.02358
0.48544 -0.09692 0.50740 0.70887 0.52039 1.119 0.432 1244.362 0.02360
0.48595 -0.09702 0.50794 0.70962 0.52228 1.027 0.417 1244.392 0.02363
0.48647 -0.09712 0.50848 0.71037 0.52418 1.001 0.415 1244.422 0.02365
0.48698 -0.09723 0.50901 0.71112 0.52607 0.854 0.398 1244.452 0.02368
0.48749 -0.09733 0.50955 0.71188 0.52797 1.440 0.467 1244.482 0.02370
0.48801 -0.09743 0.51009 0.71263 0.52986 2.110 0.530 1244.511 0.02372
0.48852 -0.09753 0.51063 0.71338 0.53176 1.025 0.424 1244.541 0.02375
0.48904 -0.09764 0.51117 0.71413 0.53365 1.249 0.451 1244.571 0.02377
