x y z dist_scaled dist_frac flux_norm sig_norm wavelength redshift
-0.08291 0.05154 0.49301 0.50258 0.00000 0.958 0.117 1236.115 0.01682
-0.08303 0.05161 0.49374 0.50333 0.00188 0.961 0.118 1236.145 0.01684
-0.08316 0.05169 0.49447 0.50407 0.00375 0.974 0.117 1236.175 0.01687
-0.08328 0.05176 0.49520 0.50481 0.00563 0.948 0.116 1236.205 0.01689
-0.08340 0.05184 0.49593 0.50556 0.00751 1.193 0.115 1236.235 0.01692
-0.08352 0.05192 0.49666 0.50630 0.00938 1.084 0.116 1236.265 0.01694
-0.08365 0.05199 0.49739 0.50705 0.01126 0.909 0.114 1236.295 0.01697
-0.08377 0.05207 0.49812 0.50779 0.01313 1.056 0.121 1236.325 0.01699
-0.08389 0.05215 0.49885 0.50853 0.01501 0.794 0.114 1236.355 0.01701
-0.08401 0.05222 0.49958 0.50928 0.01689 1.101 0.124 1236.384 0.01704
-0.08414 0.05230 0.50031 0.51002 0.01876 1.089 0.116 1236.414 0.01706
-0.08426 0.05237 0.50104 0.51077 0.02064 1.209 0.116 1236.444 0.01709
-0.08438 0.05245 0.50177 0.51151 0.02252 0.922 0.114 1236.474 0.01711
-0.08451 0.05253 0.50250 0.51225 0.02440 1.099 0.110 1236.504 0.01714
-0.08463 0.05260 0.50323 0.51300 0.02627 1.054 0.115 1236.534 0.01716
-0.08475 0.05268 0.50396 0.51374 0.02815 0.700 0.109 1236.564 0.01719
-0.08487 0.05276 0.50469 0.51449 0.03003 1.108 0.117 1236.594 0.01721
-0.08500 0.05283 0.50542 0.51523 0.03190 0.920 0.115 1236.623 0.01724
-0.08512 0.05291 0.50615 0.51597 0.03378 0.930 0.115 1236.653 0.01726
-0.08524 0.05299 0.50688 0.51672 0.03566 0.975 0.110 1236.683 0.01729
-0.08537 0.05306 0.50761 0.51746 0.03754 0.985 0.118 1236.713 0.01731
-0.08549 0.05314 0.50834 0.51821 0.03941 0.972 0.117 1236.743 0.01733
-0.08561 0.05321 0.50907 0.51895 0.04129 1.081 0.109 1236.773 0.01736
-0.08573 0.05329 0.50980 0.51970 0.04317 1.003 0.119 1236.803 0.01738
-0.08586 0.05337 0.51053 0.52044 0.04505 0.958 0.109 1236.833 0.01741
-0.08598 0.05344 0.51126 0.52118 0.04692 1.045 0.114 1236.862 0.01743
-0.08610 0.05352 0.51199 0.52193 0.04880 1.055 0.114 1236.892 0.01746
-0.08622 0.05360 0.51272 0.52267 0.05068 1.175 0.113 1236.922 0.01748
-0.08635 0.05367 0.51345 0.52342 0.05256 0.967 0.116 1236.952 0.01751
-0.08647 0.05375 0.51418 0.52416 0.05444 1.085 0.109 1236.982 0.01753
-0.08659 0.05382 0.51491 0.52491 0.05631 0.955 0.115 1237.012 0.01756
-0.08672 0.05390 0.51564 0.52565 0.05819 0.944 0.115 1237.042 0.01758
-0.08684 0.05398 0.51637 0.52640 0.06007 1.018 0.118 1237.072 0.01760
-0.08696 0.05405 0.51710 0.52714 0.06195 1.071 0.108 1237.101 0.01763
-0.08708 0.05413 0.51783 0.52788 0.06383 1.049 0.114 1237.131 0.01765
-0.08721 0.05421 0.51856 0.52863 0.06571 0.712 0.109 1237.161 0.01768
-0.08733 0.05428 0.51929 0.52937 0.06758 0.983 0.117 1237.191 0.01770
-0.08745 0.05436 0.52002 0.53012 0.06946 0.602 0.101 1237.221 0.01773
-0.08758 0.05444 0.52075 0.53086 0.07134 0.504 0.094 1237.251 0.01775
-0.08770 0.05451 0.52148 0.53161 0.07322 0.417 0.088 1237.281 0.01778
-0.08782 0.05459 0.52221 0.53235 0.07510 0.405 0.086 1237.311 0.01780
-0.08794 0.05466 0.52294 0.53310 0.07698 0.470 0.092 1237.341 0.01783
-0.08807 0.05474 0.52367 0.53384 0.07886 0.720 0.109 1237.370 0.01785
-0.08819 0.05482 0.52441 0.53459 0.08074 0.644 0.104 1237.400 0.01788
-0.08831 0.05489 0.52514 0.53533 0.08261 0.579 0.100 1237.430 0.01790
-0.08844 0.05497 0.52587 0.53608 0.08449 0.515 0.096 1237.460 0.01792
-0.08856 0.05505 0.52660 0.53682 0.08637 0.492 0.094 1237.490 0.01795
-0.08868 0.05512 0.52733 0.53757 0.08825 0.621 0.103 1237.520 0.01797
-0.08880 0.05520 0.52806 0.53831 0.09013 0.534 0.097 1237.550 0.01800
-0.08893 0.05528 0.52879 0.53906 0.09201 0.664 0.105 1237.580 0.01802
-0.08905 0.05535 0.52952 0.53980 0.09389 0.501 0.095 1237.609 0.01805
-0.08917 0.05543 0.53025 0.54055 0.09577 0.415 0.088 1237.639 0.01807
-0.08930 0.05550 0.53098 0.54129 0.09765 0.588 0.100 1237.669 0.01810
-0.08942 0.05558 0.53171 0.54204 0.09953 0.545 0.097 1237.699 0.01812
-0.08954 0.05566 0.53244 0.54278 0.10141 0.526 0.108 1237.729 0.01815
-0.08967 0.05573 0.53318 0.54353 0.10329 0.554 0.098 1237.759 0.01817
-0.08979 0.05581 0.53391 0.54427 0.10517 0.747 0.110 1237.789 0.01819
-0.08991 0.05589 0.53464 0.54502 0.10705 0.779 0.112 1237.819 0.01822
-0.09003 0.05596 0.53537 0.54576 0.10893 1.036 0.112 1237.848 0.01824
-0.09016 0.05604 0.53610 0.54651 0.11081 1.131 0.110 1237.878 0.01827
-0.09028 0.05612 0.53683 0.54725 0.11269 0.928 0.113 1237.908 0.01829
-0.09040 0.05619 0.53756 0.54800 0.11457 0.789 0.112 1237.938 0.01832
-0.09053 0.05627 0.53829 0.54874 0.11645 1.024 0.111 1237.968 0.01834
-0.09065 0.05635 0.53902 0.54949 0.11833 0.896 0.111 1237.998 0.01837
-0.09077 0.05642 0.53976 0.55024 0.12021 0.798 0.113 1238.028 0.01839
-0.09089 0.05650 0.54049 0.55098 0.12209 1.086 0.114 1238.058 0.01842
-0.09102 0.05657 0.54122 0.55173 0.12397 0.925 0.112 1238.087 0.01844
-0.09114 0.05665 0.54195 0.55247 0.12585 0.841 0.115 1238.117 0.01847
-0.09126 0.05673 0.54268 0.55322 0.12773 0.861 0.116 1238.147 0.01849
-0.09139 0.05680 0.54341 0.55396 0.12961 0.957 0.108 1238.177 0.01851
-0.09151 0.05688 0.54414 0.55471 0.13149 0.966 0.108 1238.207 0.01854
-0.09163 0.05696 0.54488 0.55545 0.13338 0.966 0.114 1238.237 0.01856
-0.09176 0.05703 0.54561 0.55620 0.13526 1.040 0.105 1238.267 0.01859
-0.09188 0.05711 0.54634 0.55695 0.13714 0.891 0.111 1238.297 0.01861
-0.09200 0.05719 0.54707 0.55769 0.13902 0.900 0.111 1238.327 0.01864
-0.09212 0.05726 0.54780 0.55844 0.14090 0.805 0.112 1238.356 0.01866
-0.09225 0.05734 0.54853 0.55918 0.14278 1.046 0.112 1238.386 0.01869
-0.09237 0.05742 0.54926 0.55993 0.14466 0.973 0.101 1238.416 0.01871
-0.09249 0.05749 0.55000 0.56067 0.14654 0.930 0.106 1238.446 0.01874
-0.09262 0.05757 0.55073 0.56142 0.14843 0.845 0.108 1238.476 0.01876
-0.09274 0.05765 0.55146 0.56217 0.15031 0.928 0.106 1238.506 0.01878
-0.09286 0.05772 0.55219 0.56291 0.15219 0.981 0.108 1238.536 0.01881
-0.09299 0.05780 0.55292 0.56366 0.15407 0.947 0.113 1238.566 0.01883
-0.09311 0.05787 0.55365 0.56440 0.15595 0.832 0.107 1238.595 0.01886
-0.09323 0.05795 0.55439 0.56515 0.15783 0.705 0.106 1238.625 0.01888
-0.09336 0.05803 0.55512 0.56590 0.15972 0.852 0.108 1238.655 0.01891
-0.09348 0.05810 0.55585 0.56664 0.16160 0.872 0.109 1238.685 0.01893
-0.09360 0.05818 0.55658 0.56739 0.16348 0.904 0.111 1238.715 0.01896
-0.09372 0.05826 0.55731 0.56813 0.16536 0.767 0.110 1238.745 0.01898
-0.09385 0.05833 0.55805 0.56888 0.16724 0.808 0.106 1238.775 0.01901
-0.09397 0.05841 0.55878 0.56963 0.16913 0.944 0.106 1238.805 0.01903
-0.09409 0.05849 0.55951 0.57037 0.17101 1.144 0.110 1238.834 0.01905
-0.09422 0.05856 0.56024 0.57112 0.17289 0.860 0.115 1238.864 0.01908
-0.09434 0.05864 0.56097 0.57186 0.17477 0.928 0.112 1238.894 0.01910
-0.09446 0.05872 0.56171 0.57261 0.17665 1.035 0.110 1238.924 0.01913
-0.09459 0.05879 0.56244 0.57336 0.17854 1.036 0.104 1238.954 0.01915
-0.09471 0.05887 0.56317 0.57410 0.18042 1.042 0.104 1238.984 0.01918
-0.09483 0.05895 0.56390 0.57485 0.18230 0.800 0.105 1239.014 0.01920
-0.09496 0.05902 0.56463 0.57560 0.18419 1.023 0.116 1239.044 0.01923
-0.09508 0.05910 0.56537 0.57634 0.18607 1.046 0.105 1239.073 0.01925
-0.09520 0.05918 0.56610 0.57709 0.18795 0.971 0.107 1239.103 0.01928
-0.09532 0.05925 0.56683 0.57784 0.18983 1.029 0.104 1239.133 0.01930
-0.09545 0.05933 0.56756 0.57858 0.19172 1.242 0.114 1239.163 0.01933
-0.09557 0.05941 0.56829 0.57933 0.19360 0.872 0.115 1239.193 0.01935
-0.09569 0.05948 0.56903 0.58007 0.19548 0.923 0.111 1239.223 0.01937
-0.09582 0.05956 0.56976 0.58082 0.19737 0.997 0.108 1239.253 0.01940
-0.09594 0.05963 0.57049 0.58157 0.19925 1.137 0.109 1239.283 0.01942
-0.09606 0.05971 0.57122 0.58231 0.20113 0.901 0.110 1239.313 0.01945
-0.09619 0.05979 0.57196 0.58306 0.20302 1.115 0.108 1239.342 0.01947
-0.09631 0.05986 0.57269 0.58381 0.20490 0.791 0.104 1239.372 0.01950
-0.09643 0.05994 0.57342 0.58455 0.20678 0.995 0.108 1239.402 0.01952
-0.09656 0.06002 0.57415 0.58530 0.20867 1.062 0.112 1239.432 0.01955
-0.09668 0.06009 0.57489 0.58605 0.21055 0.968 0.107 1239.462 0.01957
-0.09680 0.06017 0.57562 0.58679 0.21243 1.216 0.112 1239.492 0.01960
-0.09693 0.06025 0.57635 0.58754 0.21432 1.101 0.107 1239.522 0.01962
-0.09705 0.06032 0.57708 0.58829 0.21620 0.873 0.108 1239.552 0.01964
-0.09717 0.06040 0.57782 0.58904 0.21809 0.884 0.109 1239.581 0.01967
-0.09730 0.06048 0.57855 0.58978 0.21997 0.872 0.115 1239.611 0.01969
-0.09742 0.06055 0.57928 0.59053 0.22185 0.955 0.106 1239.641 0.01972
-0.09754 0.06063 0.58001 0.59128 0.22374 0.975 0.107 1239.671 0.01974
-0.09767 0.06071 0.58075 0.59202 0.22562 1.026 0.109 1239.701 0.01977
-0.09779 0.06078 0.58148 0.59277 0.22751 0.923 0.111 1239.731 0.01979
-0.09791 0.06086 0.58221 0.59352 0.22939 0.902 0.110 1239.761 0.01982
-0.09804 0.06094 0.58295 0.59426 0.23128 0.890 0.109 1239.791 0.01984
-0.09816 0.06101 0.58368 0.59501 0.23316 1.055 0.111 1239.820 0.01987
-0.09828 0.06109 0.58441 0.59576 0.23504 1.034 0.103 1239.850 0.01989
-0.09840 0.06117 0.58514 0.59650 0.23693 1.097 0.106 1239.880 0.01992
-0.09853 0.06124 0.58588 0.59725 0.23881 1.003 0.108 1239.910 0.01994
-0.09865 0.06132 0.58661 0.59800 0.24070 1.208 0.112 1239.940 0.01996
-0.09877 0.06140 0.58734 0.59875 0.24258 0.982 0.113 1239.970 0.01999
-0.09890 0.06147 0.58808 0.59949 0.24447 1.000 0.108 1240.000 0.02001
-0.09902 0.06155 0.58881 0.60024 0.24635 0.906 0.109 1240.030 0.02004
-0.09914 0.06163 0.58954 0.60099 0.24824 1.030 0.103 1240.059 0.02006
-0.09927 0.06170 0.59027 0.60174 0.25012 0.834 0.105 1240.089 0.02009
-0.09939 0.06178 0.59101 0.60248 0.25201 0.876 0.108 1240.119 0.02011
-0.09951 0.06186 0.59174 0.60323 0.25389 0.885 0.108 1240.149 0.02014
-0.09964 0.06193 0.59247 0.60398 0.25578 0.967 0.106 1240.179 0.02016
-0.09976 0.06201 0.59321 0.60472 0.25766 1.060 0.111 1240.209 0.02019
-0.09988 0.06209 0.59394 0.60547 0.25955 0.968 0.106 1240.239 0.02021
-0.10001 0.06216 0.59467 0.60622 0.26144 1.049 0.104 1240.269 0.02023
-0.10013 0.06224 0.59541 0.60697 0.26332 1.049 0.104 1240.299 0.02026
-0.10025 0.06232 0.59614 0.60771 0.26521 1.037 0.109 1240.328 0.02028
-0.10038 0.06239 0.59687 0.60846 0.26709 0.862 0.107 1240.358 0.02031
-0.10050 0.06247 0.59761 0.60921 0.26898 0.974 0.107 1240.388 0.02033
-0.10062 0.06255 0.59834 0.60996 0.27086 0.985 0.107 1240.418 0.02036
-0.10075 0.06262 0.59907 0.61070 0.27275 0.934 0.110 1240.448 0.02038
-0.10087 0.06270 0.59981 0.61145 0.27464 0.902 0.109 1240.478 0.02041
-0.10099 0.06278 0.60054 0.61220 0.27652 1.128 0.108 1240.508 0.02043
-0.10112 0.06285 0.60127 0.61295 0.27841 1.054 0.104 1240.538 0.02046
-0.10124 0.06293 0.60201 0.61370 0.28029 1.168 0.109 1240.567 0.02048
-0.10136 0.06301 0.60274 0.61444 0.28218 0.993 0.107 1240.597 0.02050
-0.10149 0.06308 0.60347 0.61519 0.28407 0.901 0.109 1240.627 0.02053
-0.10161 0.06316 0.60421 0.61594 0.28595 1.105 0.113 1240.657 0.02055
-0.10173 0.06324 0.60494 0.61669 0.28784 1.167 0.109 1240.687 0.02058
-0.10186 0.06331 0.60567 0.61743 0.28973 1.125 0.107 1240.717 0.02060
-0.10198 0.06339 0.60641 0.61818 0.29161 1.065 0.104 1240.747 0.02063
-0.10210 0.06347 0.60714 0.61893 0.29350 0.952 0.105 1240.777 0.02065
-0.10223 0.06354 0.60788 0.61968 0.29539 1.033 0.109 1240.806 0.02068
-0.10235 0.06362 0.60861 0.62043 0.29727 0.869 0.107 1240.836 0.02070
-0.10247 0.06370 0.60934 0.62117 0.29916 1.134 0.113 1240.866 0.02073
-0.10260 0.06377 0.61008 0.62192 0.30105 1.001 0.107 1240.896 0.02075
-0.10272 0.06385 0.61081 0.62267 0.30293 0.940 0.105 1240.926 0.02078
-0.10284 0.06393 0.61154 0.62342 0.30482 0.949 0.111 1240.956 0.02080
-0.10297 0.06400 0.61228 0.62417 0.30671 0.980 0.106 1240.986 0.02082
-0.10309 0.06408 0.61301 0.62491 0.30859 0.950 0.111 1241.016 0.02085
-0.10321 0.06416 0.61375 0.62566 0.31048 0.868 0.107 1241.045 0.02087
-0.10334 0.06423 0.61448 0.62641 0.31237 1.000 0.107 1241.075 0.02090
-0.10346 0.06431 0.61521 0.62716 0.31426 1.294 0.115 1241.105 0.02092
-0.10359 0.06439 0.61595 0.62791 0.31614 0.987 0.113 1241.135 0.02095
-0.10371 0.06446 0.61668 0.62866 0.31803 1.242 0.112 1241.165 0.02097
-0.10383 0.06454 0.61742 0.62940 0.31992 0.897 0.109 1241.195 0.02100
-0.10396 0.06462 0.61815 0.63015 0.32181 1.111 0.106 1241.225 0.02102
-0.10408 0.06469 0.61888 0.63090 0.32369 1.018 0.108 1241.255 0.02105
-0.10420 0.06477 0.61962 0.63165 0.32558 1.160 0.109 1241.285 0.02107
-0.10433 0.06485 0.62035 0.63240 0.32747 0.845 0.105 1241.314 0.02109
-0.10445 0.06492 0.62109 0.63315 0.32936 0.955 0.105 1241.344 0.02112
-0.10457 0.06500 0.62182 0.63389 0.33125 0.925 0.103 1241.374 0.02114
-0.10470 0.06508 0.62255 0.63464 0.33313 0.822 0.111 1241.404 0.02117
-0.10482 0.06515 0.62329 0.63539 0.33502 0.813 0.104 1241.434 0.02119
-0.10494 0.06523 0.62402 0.63614 0.33691 0.718 0.104 1241.464 0.02122
-0.10507 0.06531 0.62476 0.63689 0.33880 0.577 0.095 1241.494 0.02124
-0.10519 0.06538 0.62549 0.63764 0.34069 0.669 0.101 1241.524 0.02127
-0.10531 0.06546 0.62623 0.63838 0.34258 0.577 0.095 1241.553 0.02129
-0.10544 0.06554 0.62696 0.63913 0.34446 0.561 0.087 1241.583 0.02132
-0.10556 0.06561 0.62769 0.63988 0.34635 0.667 0.101 1241.613 0.02134
-0.10568 0.06569 0.62843 0.64063 0.34824 0.485 0.088 1241.643 0.02137
-0.10581 0.06577 0.62916 0.64138 0.35013 0.647 0.100 1241.673 0.02139
-0.10593 0.06584 0.62990 0.64213 0.35202 0.626 0.098 1241.703 0.02141
-0.10605 0.06592 0.63063 0.64288 0.35391 0.799 0.109 1241.733 0.02144
-0.10618 0.06600 0.63137 0.64363 0.35580 0.770 0.107 1241.763 0.02146
-0.10630 0.06608 0.63210 0.64437 0.35769 0.841 0.105 1241.792 0.02149
-0.10643 0.06615 0.63284 0.64512 0.35957 0.849 0.111 1241.822 0.02151
-0.10655 0.06623 0.63357 0.64587 0.36146 0.859 0.106 1241.852 0.02154
-0.10667 0.06631 0.63431 0.64662 0.36335 0.957 0.104 1241.882 0.02156
-0.10680 0.06638 0.63504 0.64737 0.36524 1.002 0.107 1241.912 0.02159
-0.10692 0.06646 0.63577 0.64812 0.36713 0.987 0.106 1241.942 0.02161
-0.10704 0.06654 0.63651 0.64887 0.36902 0.977 0.111 1241.972 0.02164
-0.10717 0.06661 0.63724 0.64962 0.37091 0.989 0.112 1242.002 0.02166
-0.10729 0.06669 0.63798 0.65037 0.37280 1.157 0.114 1242.031 0.02168
-0.10741 0.06677 0.63871 0.65111 0.37469 1.245 0.112 1242.061 0.02171
-0.10754 0.06684 0.63945 0.65186 0.37658 1.016 0.101 1242.091 0.02173
-0.10766 0.06692 0.64018 0.65261 0.37847 0.867 0.105 1242.121 0.02176
-0.10778 0.06700 0.64092 0.65336 0.38036 1.260 0.113 1242.151 0.02178
-0.10791 0.06707 0.64165 0.65411 0.38225 1.112 0.106 1242.181 0.02181
-0.10803 0.06715 0.64239 0.65486 0.38414 1.033 0.108 1242.211 0.02183
-0.10816 0.06723 0.64312 0.65561 0.38603 0.956 0.110 1242.241 0.02186
-0.10828 0.06730 0.64386 0.65636 0.38792 0.846 0.098 1242.271 0.02188
-0.10840 0.06738 0.64459 0.65711 0.38981 1.176 0.109 1242.300 0.02191
-0.10853 0.06746 0.64533 0.65786 0.39170 0.907 0.108 1242.330 0.02193
-0.10865 0.06753 0.64606 0.65861 0.39359 0.978 0.105 1242.360 0.02196
-0.10877 0.06761 0.64680 0.65936 0.39548 1.029 0.102 1242.390 0.02198
-0.10890 0.06769 0.64753 0.66011 0.39737 1.018 0.107 1242.420 0.02200
-0.10902 0.06777 0.64827 0.66085 0.39926 0.957 0.105 1242.450 0.02203
-0.10914 0.06784 0.64900 0.66160 0.40115 0.796 0.102 1242.480 0.02205
-0.10927 0.06792 0.64974 0.66235 0.40304 0.876 0.100 1242.510 0.02208
-0.10939 0.06800 0.65047 0.66310 0.40493 0.855 0.105 1242.539 0.02210
-0.10952 0.06807 0.65121 0.66385 0.40682 1.076 0.104 1242.569 0.02213
-0.10964 0.06815 0.65194 0.66460 0.40871 0.966 0.105 1242.599 0.02215
-0.10976 0.06823 0.65268 0.66535 0.41060 0.945 0.110 1242.629 0.02218
-0.10989 0.06830 0.65341 0.66610 0.41249 0.935 0.103 1242.659 0.02220
-0.11001 0.06838 0.65415 0.66685 0.41438 0.945 0.110 1242.689 0.02223
-0.11013 0.06846 0.65489 0.66760 0.41628 0.722 0.098 1242.719 0.02225
-0.11026 0.06853 0.65562 0.66835 0.41817 0.885 0.107 1242.749 0.02227
-0.11038 0.06861 0.65636 0.66910 0.42006 1.074 0.104 1242.778 0.02230
-0.11050 0.06869 0.65709 0.66985 0.42195 1.025 0.101 1242.808 0.02232
-0.11063 0.06876 0.65783 0.67060 0.42384 0.883 0.100 1242.838 0.02235
-0.11075 0.06884 0.65856 0.67135 0.42573 1.035 0.102 1242.868 0.02237
-0.11088 0.06892 0.65930 0.67210 0.42762 0.964 0.098 1242.898 0.02240
-0.11100 0.06899 0.66003 0.67285 0.42951 1.003 0.100 1242.928 0.02242
-0.11112 0.06907 0.66077 0.67360 0.43141 0.982 0.105 1242.958 0.02245
-0.11125 0.06915 0.66150 0.67435 0.43330 1.042 0.108 1242.988 0.02247
-0.11137 0.06923 0.66224 0.67510 0.43519 1.013 0.107 1243.017 0.02250
-0.11149 0.06930 0.66298 0.67585 0.43708 0.973 0.105 1243.047 0.02252
-0.11162 0.06938 0.66371 0.67660 0.43897 1.051 0.103 1243.077 0.02254
-0.11174 0.06946 0.66445 0.67735 0.44087 1.102 0.111 1243.107 0.02257
-0.11187 0.06953 0.66518 0.67810 0.44276 1.061 0.103 1243.137 0.02259
-0.11199 0.06961 0.66592 0.67885 0.44465 0.991 0.100 1243.167 0.02262
-0.11211 0.06969 0.66665 0.67960 0.44654 1.052 0.109 1243.197 0.02264
-0.11224 0.06976 0.66739 0.68035 0.44843 0.961 0.098 1243.227 0.02267
-0.11236 0.06984 0.66813 0.68110 0.45033 0.971 0.104 1243.257 0.02269
-0.11248 0.06992 0.66886 0.68185 0.45222 1.171 0.108 1243.286 0.02272
-0.11261 0.06999 0.66960 0.68260 0.45411 0.810 0.103 1243.316 0.02274
-0.11273 0.07007 0.67033 0.68335 0.45600 1.001 0.100 1243.346 0.02277
-0.11286 0.07015 0.67107 0.68410 0.45790 0.940 0.109 1243.376 0.02279
-0.11298 0.07023 0.67181 0.68485 0.45979 0.861 0.105 1243.406 0.02282
-0.11310 0.07030 0.67254 0.68560 0.46168 0.820 0.096 1243.436 0.02284
-0.11323 0.07038 0.67328 0.68635 0.46357 0.610 0.097 1243.466 0.02286
-0.11335 0.07046 0.67401 0.68710 0.46547 0.390 0.082 1243.496 0.02289
-0.11347 0.07053 0.67475 0.68785 0.46736 0.159 0.061 1243.525 0.02291
-0.11360 0.07061 0.67549 0.68860 0.46925 0.169 0.062 1243.555 0.02294
-0.11372 0.07069 0.67622 0.68935 0.47114 0.049 0.045 1243.585 0.02296
-0.11385 0.07076 0.67696 0.69010 0.47304 0.079 0.050 1243.615 0.02299
-0.11397 0.07084 0.67769 0.69085 0.47493 0.069 0.048 1243.645 0.02301
-0.11409 0.07092 0.67843 0.69160 0.47682 0.029 0.042 1243.675 0.02304
-0.11422 0.07100 0.67917 0.69235 0.47872 0.120 0.056 1243.705 0.02306
-0.11434 0.07107 0.67990 0.69310 0.48061 0.060 0.047 1243.735 0.02309
-0.11446 0.07115 0.68064 0.69385 0.48250 0.050 0.045 1243.764 0.02311
-0.11459 0.07123 0.68138 0.69461 0.48440 0.090 0.051 1243.794 0.02313
-0.11471 0.07130 0.68211 0.69536 0.48629 0.150 0.059 1243.824 0.02316
-0.11484 0.07138 0.68285 0.69611 0.48818 0.150 0.059 1243.854 0.02318
-0.11496 0.07146 0.68358 0.69686 0.49008 0.331 0.077 1243.884 0.02321
-0.11508 0.07153 0.68432 0.69761 0.49197 0.370 0.080 1243.914 0.02323
-0.11521 0.07161 0.68506 0.69836 0.49387 0.440 0.085 1243.944 0.02326
-0.11533 0.07169 0.68579 0.69911 0.49576 0.610 0.097 1243.974 0.02328
-0.11546 0.07176 0.68653 0.69986 0.49765 0.859 0.111 1244.003 0.02331
-0.11558 0.07184 0.68727 0.70061 0.49955 0.751 0.105 1244.033 0.02333
-0.11570 0.07192 0.68800 0.70136 0.50144 1.058 0.103 1244.063 0.02336
-0.11583 0.07200 0.68874 0.70211 0.50334 0.929 0.108 1244.093 0.02338
-0.11595 0.07207 0.68948 0.70286 0.50523 0.929 0.102 1244.123 0.02341
-0.11607 0.07215 0.69021 0.70361 0.50712 0.979 0.105 1244.153 0.02343
-0.11620 0.07223 0.69095 0.70437 0.50902 0.889 0.100 1244.183 0.02345
-0.11632 0.07230 0.69169 0.70512 0.51091 0.878 0.106 1244.213 0.02348
-0.11645 0.07238 0.69242 0.70587 0.51281 0.968 0.110 1244.243 0.02350
-0.11657 0.07246 0.69316 0.70662 0.51470 0.717 0.103 1244.272 0.02353
-0.11669 0.07253 0.69390 0.70737 0.51660 0.978 0.105 1244.302 0.02355
-0.11682 0.07261 0.69463 0.70812 0.51849 0.706 0.102 1244.332 0.02358
-0.11694 0.07269 0.69537 0.70887 0.52039 0.985 0.104 1244.362 0.02360
-0.11707 0.07277 0.69611 0.70962 0.52228 0.933 0.102 1244.392 0.02363
-0.11719 0.07284 0.69684 0.71037 0.52418 0.991 0.105 1244.422 0.02365
-0.11731 0.07292 0.69758 0.71112 0.52607 0.979 0.110 1244.452 0.02368
-0.11744 0.07300 0.69832 0.71188 0.52797 0.823 0.102 1244.482 0.02370
-0.11756 0.07307 0.69905 0.71263 0.52986 0.926 0.102 1244.511 0.02372
-0.11769 0.07315 0.69979 0.71338 0.53176 1.147 0.107 1244.541 0.02375
-0.11781 0.07323 0.70053 0.71413 0.53365 0.912 0.101 1244.571 0.02377
