x y z dist_scaled dist_frac flux_norm wavelength redshift
0.02533 0.06253 0.49803 0.50258 0.00000 1.786 1236.115 0.01682
0.02537 0.06262 0.49877 0.50333 0.00188 -1.036 1236.145 0.01684
0.02541 0.06272 0.49951 0.50407 0.00375 -1.022 1236.175 0.01687
0.02544 0.06281 0.50024 0.50481 0.00563 -1.021 1236.205 0.01689
0.02548 0.06290 0.50098 0.50556 0.00751 4.822 1236.235 0.01692
0.02552 0.06299 0.50172 0.50630 0.00938 -1.114 1236.265 0.01694
0.02556 0.06309 0.50246 0.50705 0.01126 -1.191 1236.295 0.01697
0.02559 0.06318 0.50319 0.50779 0.01313 -1.254 1236.325 0.01699
0.02563 0.06327 0.50393 0.50853 0.01501 -1.282 1236.355 0.01701
0.02567 0.06336 0.50467 0.50928 0.01689 -1.332 1236.384 0.01704
0.02571 0.06346 0.50540 0.51002 0.01876 7.970 1236.414 0.01706
0.02574 0.06355 0.50614 0.51077 0.02064 1.798 1236.444 0.01709
0.02578 0.06364 0.50688 0.51151 0.02252 -1.268 1236.474 0.01711
0.02582 0.06373 0.50762 0.51225 0.02440 1.913 1236.504 0.01714
0.02586 0.06383 0.50835 0.51300 0.02627 -1.323 1236.534 0.01716
0.02589 0.06392 0.50909 0.51374 0.02815 1.922 1236.564 0.01719
0.02593 0.06401 0.50983 0.51449 0.03003 -1.348 1236.594 0.01721
0.02597 0.06410 0.51057 0.51523 0.03190 -1.340 1236.623 0.01724
0.02601 0.06420 0.51130 0.51597 0.03378 5.311 1236.653 0.01726
0.02604 0.06429 0.51204 0.51672 0.03566 -1.445 1236.683 0.01729
0.02608 0.06438 0.51278 0.51746 0.03754 5.427 1236.713 0.01731
0.02612 0.06447 0.51352 0.51821 0.03941 -1.463 1236.743 0.01733
0.02616 0.06457 0.51425 0.51895 0.04129 2.001 1236.773 0.01736
0.02619 0.06466 0.51499 0.51970 0.04317 -1.569 1236.803 0.01738
0.02623 0.06475 0.51573 0.52044 0.04505 -1.535 1236.833 0.01741
0.02627 0.06485 0.51647 0.52118 0.04692 -1.489 1236.862 0.01743
0.02631 0.06494 0.51720 0.52193 0.04880 2.163 1236.892 0.01746
0.02634 0.06503 0.51794 0.52267 0.05068 2.129 1236.922 0.01748
0.02638 0.06512 0.51868 0.52342 0.05256 3.300 1236.952 0.01751
0.02642 0.06522 0.51942 0.52416 0.05444 -1.678 1236.982 0.01753
0.02646 0.06531 0.52016 0.52491 0.05631 2.172 1237.012 0.01756
0.02649 0.06540 0.52089 0.52565 0.05819 -1.683 1237.042 0.01758
0.02653 0.06549 0.52163 0.52640 0.06007 -1.737 1237.072 0.01760
0.02657 0.06559 0.52237 0.52714 0.06195 2.309 1237.101 0.01763
0.02661 0.06568 0.52311 0.52788 0.06383 6.337 1237.131 0.01765
0.02664 0.06577 0.52384 0.52863 0.06571 6.408 1237.161 0.01768
0.02668 0.06586 0.52458 0.52937 0.06758 6.404 1237.191 0.01770
0.02672 0.06596 0.52532 0.53012 0.06946 2.373 1237.221 0.01773
0.02676 0.06605 0.52606 0.53086 0.07134 2.438 1237.251 0.01775
0.02679 0.06614 0.52680 0.53161 0.07322 7.921 1237.281 0.01778
0.02683 0.06623 0.52753 0.53235 0.07510 7.994 1237.311 0.01780
0.02687 0.06633 0.52827 0.53310 0.07698 -1.466 1237.341 0.01783
0.02691 0.06642 0.52901 0.53384 0.07886 -1.487 1237.370 0.01785
0.02695 0.06651 0.52975 0.53459 0.08074 9.737 1237.400 0.01788
0.02698 0.06661 0.53049 0.53533 0.08261 2.922 1237.430 0.01790
0.02702 0.06670 0.53123 0.53608 0.08449 3.001 1237.460 0.01792
0.02706 0.06679 0.53196 0.53682 0.08637 7.469 1237.490 0.01795
0.02710 0.06688 0.53270 0.53757 0.08825 -1.535 1237.520 0.01797
0.02713 0.06698 0.53344 0.53831 0.09013 3.982 1237.550 0.01800
0.02717 0.06707 0.53418 0.53906 0.09201 -1.637 1237.580 0.01802
0.02721 0.06716 0.53492 0.53980 0.09389 4.020 1237.609 0.01805
0.02725 0.06725 0.53565 0.54055 0.09577 3.087 1237.639 0.01807
0.02728 0.06735 0.53639 0.54129 0.09765 3.816 1237.669 0.01810
0.02732 0.06744 0.53713 0.54204 0.09953 -1.763 1237.699 0.01812
0.02736 0.06753 0.53787 0.54278 0.10141 3.126 1237.729 0.01815
0.02740 0.06763 0.53861 0.54353 0.10329 -1.840 1237.759 0.01817
0.02743 0.06772 0.53935 0.54427 0.10517 -1.836 1237.789 0.01819
0.02747 0.06781 0.54009 0.54502 0.10705 3.153 1237.819 0.01822
0.02751 0.06790 0.54082 0.54576 0.10893 3.106 1237.848 0.01824
0.02755 0.06800 0.54156 0.54651 0.11081 -2.116 1237.878 0.01827
0.02758 0.06809 0.54230 0.54725 0.11269 -2.052 1237.908 0.01829
0.02762 0.06818 0.54304 0.54800 0.11457 3.281 1237.938 0.01832
0.02766 0.06827 0.54378 0.54874 0.11645 3.325 1237.968 0.01834
0.02770 0.06837 0.54452 0.54949 0.11833 3.274 1237.998 0.01837
0.02773 0.06846 0.54526 0.55024 0.12021 3.325 1238.028 0.01839
0.02777 0.06855 0.54599 0.55098 0.12209 -2.239 1238.058 0.01842
0.02781 0.06865 0.54673 0.55173 0.12397 3.203 1238.087 0.01844
0.02785 0.06874 0.54747 0.55247 0.12585 -2.492 1238.117 0.01847
0.02788 0.06883 0.54821 0.55322 0.12773 3.195 1238.147 0.01849
0.02792 0.06892 0.54895 0.55396 0.12961 9.050 1238.177 0.01851
0.02796 0.06902 0.54969 0.55471 0.13149 -2.520 1238.207 0.01854
0.02800 0.06911 0.55043 0.55545 0.13338 9.122 1238.237 0.01856
0.02803 0.06920 0.55117 0.55620 0.13526 -2.610 1238.267 0.01859
0.02807 0.06929 0.55190 0.55695 0.13714 -2.777 1238.297 0.01861
0.02811 0.06939 0.55264 0.55769 0.13902 3.234 1238.327 0.01864
0.02815 0.06948 0.55338 0.55844 0.14090 -2.794 1238.356 0.01866
0.02818 0.06957 0.55412 0.55918 0.14278 9.450 1238.386 0.01869
0.02822 0.06967 0.55486 0.55993 0.14466 -2.816 1238.416 0.01871
0.02826 0.06976 0.55560 0.56067 0.14654 3.402 1238.446 0.01874
0.02830 0.06985 0.55634 0.56142 0.14843 3.355 1238.476 0.01876
0.02834 0.06994 0.55708 0.56217 0.15031 3.462 1238.506 0.01878
0.02837 0.07004 0.55782 0.56291 0.15219 -2.874 1238.536 0.01881
0.02841 0.07013 0.55856 0.56366 0.15407 3.638 1238.566 0.01883
0.02845 0.07022 0.55930 0.56440 0.15595 -2.906 1238.595 0.01886
0.02849 0.07032 0.56003 0.56515 0.15783 -2.884 1238.625 0.01888
0.02852 0.07041 0.56077 0.56590 0.15972 -2.709 1238.655 0.01891
0.02856 0.07050 0.56151 0.56664 0.16160 -2.637 1238.685 0.01893
0.02860 0.07059 0.56225 0.56739 0.16348 4.130 1238.715 0.01896
0.02864 0.07069 0.56299 0.56813 0.16536 4.309 1238.745 0.01898
0.02867 0.07078 0.56373 0.56888 0.16724 11.219 1238.775 0.01901
0.02871 0.07087 0.56447 0.56963 0.16913 -2.636 1238.805 0.01903
0.02875 0.07097 0.56521 0.57037 0.17101 -2.642 1238.834 0.01905
0.02879 0.07106 0.56595 0.57112 0.17289 -2.642 1238.864 0.01908
0.02882 0.07115 0.56669 0.57186 0.17477 -2.767 1238.894 0.01910
0.02886 0.07124 0.56743 0.57261 0.17665 -2.983 1238.924 0.01913
0.02890 0.07134 0.56817 0.57336 0.17854 4.085 1238.954 0.01915
0.02894 0.07143 0.56891 0.57410 0.18042 -3.094 1238.984 0.01918
0.02897 0.07152 0.56965 0.57485 0.18230 -3.171 1239.014 0.01920
0.02901 0.07161 0.57039 0.57560 0.18419 4.101 1239.044 0.01923
0.02905 0.07171 0.57113 0.57634 0.18607 -3.279 1239.073 0.01925
0.02909 0.07180 0.57187 0.57709 0.18795 4.236 1239.103 0.01928
0.02912 0.07189 0.57261 0.57784 0.18983 -3.205 1239.133 0.01930
0.02916 0.07199 0.57335 0.57858 0.19172 -3.232 1239.163 0.01933
0.02920 0.07208 0.57408 0.57933 0.19360 4.424 1239.193 0.01935
0.02924 0.07217 0.57482 0.58007 0.19548 12.231 1239.223 0.01937
0.02928 0.07227 0.57556 0.58082 0.19737 -3.372 1239.253 0.01940
0.02931 0.07236 0.57630 0.58157 0.19925 4.560 1239.283 0.01942
0.02935 0.07245 0.57704 0.58231 0.20113 -3.228 1239.313 0.01945
0.02939 0.07254 0.57778 0.58306 0.20302 4.424 1239.342 0.01947
0.02943 0.07264 0.57852 0.58381 0.20490 -3.488 1239.372 0.01950
0.02946 0.07273 0.57926 0.58455 0.20678 -3.669 1239.402 0.01952
0.02950 0.07282 0.58000 0.58530 0.20867 -3.612 1239.432 0.01955
0.02954 0.07292 0.58074 0.58605 0.21055 4.565 1239.462 0.01957
0.02958 0.07301 0.58148 0.58679 0.21243 -3.726 1239.492 0.01960
0.02961 0.07310 0.58222 0.58754 0.21432 12.598 1239.522 0.01962
0.02965 0.07319 0.58296 0.58829 0.21620 4.671 1239.552 0.01964
0.02969 0.07329 0.58370 0.58904 0.21809 4.630 1239.581 0.01967
0.02973 0.07338 0.58444 0.58978 0.21997 -3.760 1239.611 0.01969
0.02976 0.07347 0.58518 0.59053 0.22185 -3.870 1239.641 0.01972
0.02980 0.07357 0.58592 0.59128 0.22374 4.418 1239.671 0.01974
0.02984 0.07366 0.58666 0.59202 0.22562 12.756 1239.701 0.01977
0.02988 0.07375 0.58740 0.59277 0.22751 4.316 1239.731 0.01979
0.02992 0.07384 0.58814 0.59352 0.22939 -4.453 1239.761 0.01982
0.02995 0.07394 0.58888 0.59426 0.23128 4.309 1239.791 0.01984
0.02999 0.07403 0.58963 0.59501 0.23316 4.148 1239.820 0.01987
0.03003 0.07412 0.59037 0.59576 0.23504 21.342 1239.850 0.01989
0.03007 0.07422 0.59111 0.59650 0.23693 12.939 1239.880 0.01992
0.03010 0.07431 0.59185 0.59725 0.23881 4.374 1239.910 0.01994
0.03014 0.07440 0.59259 0.59800 0.24070 13.129 1239.940 0.01996
0.03018 0.07450 0.59333 0.59875 0.24258 4.579 1239.970 0.01999
0.03022 0.07459 0.59407 0.59949 0.24447 13.526 1240.000 0.02001
0.03025 0.07468 0.59481 0.60024 0.24635 13.579 1240.030 0.02004
0.03029 0.07477 0.59555 0.60099 0.24824 4.842 1240.059 0.02006
0.03033 0.07487 0.59629 0.60174 0.25012 -3.625 1240.089 0.02009
0.03037 0.07496 0.59703 0.60248 0.25201 -3.602 1240.119 0.02011
0.03040 0.07505 0.59777 0.60323 0.25389 -3.550 1240.149 0.02014
0.03044 0.07515 0.59851 0.60398 0.25578 5.192 1240.179 0.02016
0.03048 0.07524 0.59925 0.60472 0.25766 5.235 1240.209 0.02019
0.03052 0.07533 0.59999 0.60547 0.25955 16.014 1240.239 0.02021
0.03056 0.07543 0.60073 0.60622 0.26144 5.272 1240.269 0.02023
0.03059 0.07552 0.60147 0.60697 0.26332 -3.918 1240.299 0.02026
0.03063 0.07561 0.60221 0.60771 0.26521 -3.972 1240.328 0.02028
0.03067 0.07570 0.60295 0.60846 0.26709 4.828 1240.358 0.02031
0.03071 0.07580 0.60370 0.60921 0.26898 -3.932 1240.388 0.02033
0.03074 0.07589 0.60444 0.60996 0.27086 4.967 1240.418 0.02036
0.03078 0.07598 0.60518 0.61070 0.27275 4.888 1240.448 0.02038
0.03082 0.07608 0.60592 0.61145 0.27464 -3.992 1240.478 0.02041
0.03086 0.07617 0.60666 0.61220 0.27652 4.829 1240.508 0.02043
0.03089 0.07626 0.60740 0.61295 0.27841 -4.290 1240.538 0.02046
0.03093 0.07636 0.60814 0.61370 0.28029 -4.469 1240.567 0.02048
0.03097 0.07645 0.60888 0.61444 0.28218 14.802 1240.597 0.02050
0.03101 0.07654 0.60962 0.61519 0.28407 4.604 1240.627 0.02053
0.03105 0.07663 0.61036 0.61594 0.28595 42.165 1240.657 0.02055
0.03108 0.07673 0.61110 0.61669 0.28784 -4.395 1240.687 0.02058
0.03112 0.07682 0.61185 0.61743 0.28973 4.408 1240.717 0.02060
0.03116 0.07691 0.61259 0.61818 0.29161 4.648 1240.747 0.02063
0.03120 0.07701 0.61333 0.61893 0.29350 4.628 1240.777 0.02065
0.03123 0.07710 0.61407 0.61968 0.29539 13.730 1240.806 0.02068
0.03127 0.07719 0.61481 0.62043 0.29727 -4.200 1240.836 0.02070
0.03131 0.07729 0.61555 0.62117 0.29916 13.714 1240.866 0.02073
0.03135 0.07738 0.61629 0.62192 0.30105 22.698 1240.896 0.02075
0.03138 0.07747 0.61703 0.62267 0.30293 -3.737 1240.926 0.02078
0.03142 0.07756 0.61778 0.62342 0.30482 -3.897 1240.956 0.02080
0.03146 0.07766 0.61852 0.62417 0.30671 -3.923 1240.986 0.02082
0.03150 0.07775 0.61926 0.62491 0.30859 22.277 1241.016 0.02085
0.03154 0.07784 0.62000 0.62566 0.31048 4.577 1241.045 0.02087
0.03157 0.07794 0.62074 0.62641 0.31237 4.594 1241.075 0.02090
0.03161 0.07803 0.62148 0.62716 0.31426 4.480 1241.105 0.02092
0.03165 0.07812 0.62222 0.62791 0.31614 -4.160 1241.135 0.02095
0.03169 0.07822 0.62296 0.62866 0.31803 -4.177 1241.165 0.02097
0.03172 0.07831 0.62371 0.62940 0.31992 4.607 1241.195 0.02100
0.03176 0.07840 0.62445 0.63015 0.32181 4.605 1241.225 0.02102
0.03180 0.07850 0.62519 0.63090 0.32369 13.080 1241.255 0.02105
0.03184 0.07859 0.62593 0.63165 0.32558 -4.368 1241.285 0.02107
0.03187 0.07868 0.62667 0.63240 0.32747 -4.335 1241.314 0.02109
0.03191 0.07878 0.62741 0.63315 0.32936 -4.247 1241.344 0.02112
0.03195 0.07887 0.62816 0.63389 0.33125 -4.238 1241.374 0.02114
0.03199 0.07896 0.62890 0.63464 0.33313 -4.378 1241.404 0.02117
0.03203 0.07905 0.62964 0.63539 0.33502 12.278 1241.434 0.02119
0.03206 0.07915 0.63038 0.63614 0.33691 -4.480 1241.464 0.02122
0.03210 0.07924 0.63112 0.63689 0.33880 3.997 1241.494 0.02124
0.03214 0.07933 0.63186 0.63764 0.34069 12.448 1241.524 0.02127
0.03218 0.07943 0.63261 0.63838 0.34258 -4.466 1241.553 0.02129
0.03221 0.07952 0.63335 0.63913 0.34446 4.191 1241.583 0.02132
0.03225 0.07961 0.63409 0.63988 0.34635 12.228 1241.613 0.02134
0.03229 0.07971 0.63483 0.64063 0.34824 3.926 1241.643 0.02137
0.03233 0.07980 0.63557 0.64138 0.35013 4.037 1241.673 0.02139
0.03237 0.07989 0.63632 0.64213 0.35202 12.477 1241.703 0.02141
0.03240 0.07999 0.63706 0.64288 0.35391 -3.897 1241.733 0.02144
0.03244 0.08008 0.63780 0.64363 0.35580 4.245 1241.763 0.02146
0.03248 0.08017 0.63854 0.64437 0.35769 -4.095 1241.792 0.02149
0.03252 0.08027 0.63928 0.64512 0.35957 -4.133 1241.822 0.02151
0.03255 0.08036 0.64003 0.64587 0.36146 12.020 1241.852 0.02154
0.03259 0.08045 0.64077 0.64662 0.36335 -4.084 1241.882 0.02156
0.03263 0.08054 0.64151 0.64737 0.36524 -4.090 1241.912 0.02159
0.03267 0.08064 0.64225 0.64812 0.36713 3.843 1241.942 0.02161
0.03271 0.08073 0.64299 0.64887 0.36902 -4.007 1241.972 0.02164
0.03274 0.08082 0.64374 0.64962 0.37091 -3.930 1242.002 0.02166
0.03278 0.08092 0.64448 0.65037 0.37280 -3.939 1242.031 0.02168
0.03282 0.08101 0.64522 0.65111 0.37469 19.169 1242.061 0.02171
0.03286 0.08110 0.64596 0.65186 0.37658 3.699 1242.091 0.02173
0.03289 0.08120 0.64671 0.65261 0.37847 3.593 1242.121 0.02176
0.03293 0.08129 0.64745 0.65336 0.38036 -4.108 1242.151 0.02178
0.03297 0.08138 0.64819 0.65411 0.38225 22.665 1242.181 0.02181
0.03301 0.08148 0.64893 0.65486 0.38414 10.946 1242.211 0.02183
0.03304 0.08157 0.64968 0.65561 0.38603 10.687 1242.241 0.02186
0.03308 0.08166 0.65042 0.65636 0.38792 -3.737 1242.271 0.02188
0.03312 0.08176 0.65116 0.65711 0.38981 3.744 1242.300 0.02191
0.03316 0.08185 0.65190 0.65786 0.39170 -3.408 1242.330 0.02193
0.03320 0.08194 0.65265 0.65861 0.39359 11.141 1242.360 0.02196
0.03323 0.08204 0.65339 0.65936 0.39548 3.874 1242.390 0.02198
0.03327 0.08213 0.65413 0.66011 0.39737 -3.064 1242.420 0.02200
0.03331 0.08222 0.65487 0.66085 0.39926 -2.964 1242.450 0.02203
0.03335 0.08232 0.65562 0.66160 0.40115 -2.938 1242.480 0.02205
0.03338 0.08241 0.65636 0.66235 0.40304 -2.935 1242.510 0.02208
0.03342 0.08250 0.65710 0.66310 0.40493 -2.700 1242.539 0.02210
0.03346 0.08260 0.65784 0.66385 0.40682 -2.652 1242.569 0.02213
0.03350 0.08269 0.65859 0.66460 0.40871 -2.609 1242.599 0.02215
0.03354 0.08278 0.65933 0.66535 0.41060 4.145 1242.629 0.02218
0.03357 0.08288 0.66007 0.66610 0.41249 -2.763 1242.659 0.02220
0.03361 0.08297 0.66082 0.66685 0.41438 -2.956 1242.689 0.02223
0.03365 0.08306 0.66156 0.66760 0.41628 -2.999 1242.719 0.02225
0.03369 0.08316 0.66230 0.66835 0.41817 -2.905 1242.749 0.02227
0.03372 0.08325 0.66304 0.66910 0.42006 -2.806 1242.778 0.02230
0.03376 0.08334 0.66379 0.66985 0.42195 3.960 1242.808 0.02232
0.03380 0.08344 0.66453 0.67060 0.42384 -2.489 1242.838 0.02235
0.03384 0.08353 0.66527 0.67135 0.42573 16.991 1242.868 0.02237
0.03388 0.08362 0.66602 0.67210 0.42762 3.869 1242.898 0.02240
0.03391 0.08371 0.66676 0.67285 0.42951 -2.520 1242.928 0.02242
0.03395 0.08381 0.66750 0.67360 0.43141 10.325 1242.958 0.02245
0.03399 0.08390 0.66824 0.67435 0.43330 3.941 1242.988 0.02247
0.03403 0.08399 0.66899 0.67510 0.43519 10.268 1243.017 0.02250
0.03407 0.08409 0.66973 0.67585 0.43708 -2.363 1243.047 0.02252
0.03410 0.08418 0.67047 0.67660 0.43897 -2.377 1243.077 0.02254
0.03414 0.08427 0.67122 0.67735 0.44087 -2.326 1243.107 0.02257
0.03418 0.08437 0.67196 0.67810 0.44276 -2.224 1243.137 0.02259
0.03422 0.08446 0.67270 0.67885 0.44465 -2.196 1243.167 0.02262
0.03425 0.08455 0.67345 0.67960 0.44654 -2.378 1243.197 0.02264
0.03429 0.08465 0.67419 0.68035 0.44843 -2.180 1243.227 0.02267
0.03433 0.08474 0.67493 0.68110 0.45033 4.004 1243.257 0.02269
0.03437 0.08483 0.67568 0.68185 0.45222 3.948 1243.286 0.02272
0.03441 0.08493 0.67642 0.68260 0.45411 -2.118 1243.316 0.02274
0.03444 0.08502 0.67716 0.68335 0.45600 3.807 1243.346 0.02277
0.03448 0.08511 0.67791 0.68410 0.45790 -2.052 1243.376 0.02279
0.03452 0.08521 0.67865 0.68485 0.45979 -2.141 1243.406 0.02282
0.03456 0.08530 0.67939 0.68560 0.46168 -2.322 1243.436 0.02284
0.03459 0.08539 0.68014 0.68635 0.46357 3.497 1243.466 0.02286
0.03463 0.08549 0.68088 0.68710 0.46547 -2.265 1243.496 0.02289
0.03467 0.08558 0.68162 0.68785 0.46736 -2.293 1243.525 0.02291
0.03471 0.08567 0.68237 0.68860 0.46925 -2.264 1243.555 0.02294
0.03475 0.08577 0.68311 0.68935 0.47114 3.352 1243.585 0.02296
0.03478 0.08586 0.68386 0.69010 0.47304 -2.105 1243.615 0.02299
0.03482 0.08595 0.68460 0.69085 0.47493 -2.236 1243.645 0.02301
0.03486 0.08605 0.68534 0.69160 0.47682 -2.160 1243.675 0.02304
0.03490 0.08614 0.68609 0.69235 0.47872 -2.036 1243.705 0.02306
0.03493 0.08624 0.68683 0.69310 0.48061 14.142 1243.735 0.02309
0.03497 0.08633 0.68757 0.69385 0.48250 3.297 1243.764 0.02311
0.03501 0.08642 0.68832 0.69461 0.48440 8.737 1243.794 0.02313
0.03505 0.08652 0.68906 0.69536 0.48629 -2.162 1243.824 0.02316
0.03509 0.08661 0.68981 0.69611 0.48818 -2.264 1243.854 0.02318
0.03512 0.08670 0.69055 0.69686 0.49008 3.025 1243.884 0.02321
0.03516 0.08680 0.69129 0.69761 0.49197 -2.180 1243.914 0.02323
0.03520 0.08689 0.69204 0.69836 0.49387 -2.153 1243.944 0.02326
0.03524 0.08698 0.69278 0.69911 0.49576 14.355 1243.974 0.02328
0.03528 0.08708 0.69353 0.69986 0.49765 -2.246 1244.003 0.02331
0.03531 0.08717 0.69427 0.70061 0.49955 -2.351 1244.033 0.02333
0.03535 0.08726 0.69501 0.70136 0.50144 -2.396 1244.063 0.02336
0.03539 0.08736 0.69576 0.70211 0.50334 7.716 1244.093 0.02338
0.03543 0.08745 0.69650 0.70286 0.50523 2.555 1244.123 0.02341
0.03546 0.08754 0.69725 0.70361 0.50712 -2.538 1244.153 0.02343
0.03550 0.08764 0.69799 0.70437 0.50902 -2.546 1244.183 0.02345
0.03554 0.08773 0.69873 0.70512 0.51091 2.438 1244.213 0.02348
0.03558 0.08782 0.69948 0.70587 0.51281 2.448 1244.243 0.02350
0.03562 0.08792 0.70022 0.70662 0.51470 2.312 1244.272 0.02353
0.03565 0.08801 0.70097 0.70737 0.51660 -2.447 1244.302 0.02355
0.03569 0.08810 0.70171 0.70812 0.51849 -2.519 1244.332 0.02358
0.03573 0.08820 0.70246 0.70887 0.52039 2.300 1244.362 0.02360
0.03577 0.08829 0.70320 0.70962 0.52228 7.676 1244.392 0.02363
0.03581 0.08838 0.70394 0.71037 0.52418 -2.423 1244.422 0.02365
0.03584 0.08848 0.70469 0.71112 0.52607 -2.453 1244.452 0.02368
0.03588 0.08857 0.70543 0.71188 0.52797 6.995 1244.482 0.02370
0.03592 0.08866 0.70618 0.71263 0.52986 -2.518 1244.511 0.02372
0.03596 0.08876 0.70692 0.71338 0.53176 2.091 1244.541 0.02375
0.03599 0.08885 0.70767 0.71413 0.53365 2.296 1244.571 0.02377
0.03603 0.08894 0.70841 0.71488 0.53555 2.169 1244.601 0.02380
0.03607 0.08904 0.70916 0.71563 0.53744 6.769 1244.631 0.02382
0.03611 0.08913 0.70990 0.71638 0.53934 -2.299 1244.661 0.02385
0.03615 0.08923 0.71064 0.71714 0.54123 6.824 1244.691 0.02387
0.03618 0.08932 0.71139 0.71789 0.54313 2.241 1244.721 0.02390
0.03622 0.08941 0.71213 0.71864 0.54502 -2.264 1244.750 0.02392
0.03626 0.08951 0.71288 0.71939 0.54692 -2.234 1244.780 0.02395
0.03630 0.08960 0.71362 0.72014 0.54882 -2.305 1244.810 0.02397
0.03634 0.08969 0.71437 0.72089 0.55071 -2.339 1244.840 0.02400
0.03637 0.08979 0.71511 0.72164 0.55261 -2.292 1244.870 0.02402
0.03641 0.08988 0.71586 0.72240 0.55450 -2.282 1244.900 0.02404
0.03645 0.08997 0.71660 0.72315 0.55640 10.801 1244.930 0.02407
0.03649 0.09007 0.71735 0.72390 0.55829 2.028 1244.960 0.02409
0.03652 0.09016 0.71809 0.72465 0.56019 2.069 1244.989 0.02412
0.03656 0.09025 0.71884 0.72540 0.56209 1.917 1245.019 0.02414
0.03660 0.09035 0.71958 0.72615 0.56398 1.894 1245.049 0.02417
0.03664 0.09044 0.72033 0.72691 0.56588 6.285 1245.079 0.02419
0.03668 0.09053 0.72107 0.72766 0.56778 2.065 1245.109 0.02422
0.03671 0.09063 0.72182 0.72841 0.56967 -2.191 1245.139 0.02424
0.03675 0.09072 0.72256 0.72916 0.57157 -2.136 1245.169 0.02427
0.03679 0.09081 0.72331 0.72991 0.57347 6.196 1245.199 0.02429
0.03683 0.09091 0.72405 0.73066 0.57536 10.272 1245.229 0.02431
0.03687 0.09100 0.72480 0.73142 0.57726 -2.087 1245.258 0.02434
0.03690 0.09110 0.72554 0.73217 0.57916 -2.188 1245.288 0.02436
0.03694 0.09119 0.72629 0.73292 0.58105 -2.238 1245.318 0.02439
0.03698 0.09128 0.72703 0.73367 0.58295 -2.161 1245.348 0.02441
0.03702 0.09138 0.72778 0.73442 0.58485 -2.271 1245.378 0.02444
0.03706 0.09147 0.72852 0.73518 0.58674 -2.300 1245.408 0.02446
0.03709 0.09156 0.72927 0.73593 0.58864 -2.217 1245.438 0.02449
