x y z dist_scaled dist_frac flux_norm sig_norm wavelength redshift
0.21784 0.09322 0.44322 0.50258 0.00000 0.822 0.193 1236.115 0.01682
0.21817 0.09336 0.44388 0.50333 0.00188 1.345 0.234 1236.145 0.01684
0.21849 0.09349 0.44453 0.50407 0.00375 0.798 0.191 1236.175 0.01687
0.21881 0.09363 0.44519 0.50481 0.00563 0.719 0.185 1236.205 0.01689
0.21913 0.09377 0.44584 0.50556 0.00751 0.799 0.192 1236.235 0.01692
0.21945 0.09391 0.44650 0.50630 0.00938 0.985 0.208 1236.265 0.01694
0.21978 0.09405 0.44716 0.50705 0.01126 0.935 0.204 1236.295 0.01697
0.22010 0.09418 0.44781 0.50779 0.01313 0.961 0.207 1236.325 0.01699
0.22042 0.09432 0.44847 0.50853 0.01501 1.016 0.211 1236.355 0.01701
0.22074 0.09446 0.44912 0.50928 0.01689 1.015 0.211 1236.384 0.01704
0.22107 0.09460 0.44978 0.51002 0.01876 0.963 0.208 1236.414 0.01706
0.22139 0.09473 0.45044 0.51077 0.02064 1.176 0.224 1236.444 0.01709
0.22171 0.09487 0.45109 0.51151 0.02252 0.884 0.201 1236.474 0.01711
0.22203 0.09501 0.45175 0.51225 0.02440 0.649 0.179 1236.504 0.01714
0.22236 0.09515 0.45240 0.51300 0.02627 1.075 0.217 1236.534 0.01716
0.22268 0.09529 0.45306 0.51374 0.02815 0.919 0.204 1236.564 0.01719
0.22300 0.09543 0.45372 0.51449 0.03003 0.945 0.206 1236.594 0.01721
0.22332 0.09556 0.45437 0.51523 0.03190 1.000 0.211 1236.623 0.01724
0.22365 0.09570 0.45503 0.51597 0.03378 1.030 0.215 1236.653 0.01726
0.22397 0.09584 0.45569 0.51672 0.03566 1.166 0.225 1236.683 0.01729
0.22429 0.09598 0.45634 0.51746 0.03754 0.979 0.210 1236.713 0.01731
0.22462 0.09612 0.45700 0.51821 0.03941 1.275 0.233 1236.743 0.01733
0.22494 0.09625 0.45766 0.51895 0.04129 0.659 0.181 1236.773 0.01736
0.22526 0.09639 0.45831 0.51970 0.04317 1.090 0.220 1236.803 0.01738
0.22558 0.09653 0.45897 0.52044 0.04505 0.848 0.200 1236.833 0.01741
0.22591 0.09667 0.45962 0.52118 0.04692 0.794 0.195 1236.862 0.01743
0.22623 0.09681 0.46028 0.52193 0.04880 0.876 0.203 1236.892 0.01746
0.22655 0.09694 0.46094 0.52267 0.05068 1.094 0.221 1236.922 0.01748
0.22687 0.09708 0.46159 0.52342 0.05256 0.934 0.208 1236.952 0.01751
0.22720 0.09722 0.46225 0.52416 0.05444 0.935 0.208 1236.982 0.01753
0.22752 0.09736 0.46291 0.52491 0.05631 0.775 0.194 1237.012 0.01756
0.22784 0.09750 0.46356 0.52565 0.05819 1.101 0.221 1237.042 0.01758
0.22816 0.09763 0.46422 0.52640 0.06007 1.076 0.220 1237.072 0.01760
0.22849 0.09777 0.46488 0.52714 0.06195 0.886 0.204 1237.101 0.01763
0.22881 0.09791 0.46553 0.52788 0.06383 0.750 0.192 1237.131 0.01765
0.22913 0.09805 0.46619 0.52863 0.06571 0.778 0.195 1237.161 0.01768
0.22946 0.09819 0.46685 0.52937 0.06758 0.835 0.202 1237.191 0.01770
0.22978 0.09832 0.46750 0.53012 0.06946 1.027 0.217 1237.221 0.01773
0.23010 0.09846 0.46816 0.53086 0.07134 1.109 0.223 1237.251 0.01775
0.23042 0.09860 0.46882 0.53161 0.07322 0.727 0.191 1237.281 0.01778
0.23075 0.09874 0.46947 0.53235 0.07510 1.226 0.234 1237.311 0.01780
0.23107 0.09888 0.47013 0.53310 0.07698 0.860 0.208 1237.341 0.01783
0.23139 0.09902 0.47079 0.53384 0.07886 0.913 0.211 1237.370 0.01785
0.23172 0.09915 0.47144 0.53459 0.08074 0.670 0.189 1237.400 0.01788
0.23204 0.09929 0.47210 0.53533 0.08261 1.201 0.235 1237.430 0.01790
0.23236 0.09943 0.47276 0.53608 0.08449 1.234 0.238 1237.460 0.01792
0.23268 0.09957 0.47342 0.53682 0.08637 0.995 0.219 1237.490 0.01795
0.23301 0.09971 0.47407 0.53757 0.08825 0.907 0.210 1237.520 0.01797
0.23333 0.09984 0.47473 0.53831 0.09013 1.233 0.236 1237.550 0.01800
0.23365 0.09998 0.47539 0.53906 0.09201 1.133 0.230 1237.580 0.01802
0.23398 0.10012 0.47604 0.53980 0.09389 0.905 0.213 1237.609 0.01805
0.23430 0.10026 0.47670 0.54055 0.09577 1.057 0.224 1237.639 0.01807
0.23462 0.10040 0.47736 0.54129 0.09765 0.880 0.210 1237.669 0.01810
0.23494 0.10054 0.47802 0.54204 0.09953 0.786 0.201 1237.699 0.01812
0.23527 0.10067 0.47867 0.54278 0.10141 1.275 0.239 1237.729 0.01815
0.23559 0.10081 0.47933 0.54353 0.10329 0.990 0.218 1237.759 0.01817
0.23591 0.10095 0.47999 0.54427 0.10517 1.080 0.228 1237.789 0.01819
0.23624 0.10109 0.48064 0.54502 0.10705 0.964 0.218 1237.819 0.01822
0.23656 0.10123 0.48130 0.54576 0.10893 0.927 0.216 1237.848 0.01824
0.23688 0.10136 0.48196 0.54651 0.11081 0.941 0.217 1237.878 0.01827
0.23721 0.10150 0.48262 0.54725 0.11269 0.915 0.217 1237.908 0.01829
0.23753 0.10164 0.48327 0.54800 0.11457 0.859 0.212 1237.938 0.01832
0.23785 0.10178 0.48393 0.54874 0.11645 0.998 0.220 1237.968 0.01834
0.23818 0.10192 0.48459 0.54949 0.11833 1.195 0.237 1237.998 0.01837
0.23850 0.10206 0.48524 0.55024 0.12021 1.028 0.225 1238.028 0.01839
0.23882 0.10219 0.48590 0.55098 0.12209 1.280 0.240 1238.058 0.01842
0.23914 0.10233 0.48656 0.55173 0.12397 1.225 0.236 1238.087 0.01844
0.23947 0.10247 0.48722 0.55247 0.12585 1.457 0.256 1238.117 0.01847
0.23979 0.10261 0.48787 0.55322 0.12773 1.049 0.225 1238.147 0.01849
0.24011 0.10275 0.48853 0.55396 0.12961 0.906 0.214 1238.177 0.01851
0.24044 0.10289 0.48919 0.55471 0.13149 1.375 0.249 1238.207 0.01854
0.24076 0.10302 0.48985 0.55545 0.13338 1.075 0.228 1238.237 0.01856
0.24108 0.10316 0.49050 0.55620 0.13526 0.844 0.209 1238.267 0.01859
0.24141 0.10330 0.49116 0.55695 0.13714 0.766 0.202 1238.297 0.01861
0.24173 0.10344 0.49182 0.55769 0.13902 0.921 0.216 1238.327 0.01864
0.24205 0.10358 0.49248 0.55844 0.14090 0.723 0.200 1238.356 0.01866
0.24238 0.10372 0.49314 0.55918 0.14278 0.700 0.196 1238.386 0.01869
0.24270 0.10385 0.49379 0.55993 0.14466 0.485 0.173 1238.416 0.01871
0.24302 0.10399 0.49445 0.56067 0.14654 0.806 0.205 1238.446 0.01874
0.24335 0.10413 0.49511 0.56142 0.14843 0.872 0.210 1238.476 0.01876
0.24367 0.10427 0.49577 0.56217 0.15031 1.042 0.225 1238.506 0.01878
0.24399 0.10441 0.49642 0.56291 0.15219 0.729 0.202 1238.536 0.01881
0.24432 0.10455 0.49708 0.56366 0.15407 0.949 0.244 1238.566 0.01883
0.24464 0.10468 0.49774 0.56440 0.15595 1.041 0.225 1238.595 0.01886
0.24496 0.10482 0.49840 0.56515 0.15783 0.894 0.216 1238.625 0.01888
0.24529 0.10496 0.49906 0.56590 0.15972 1.090 0.228 1238.655 0.01891
0.24561 0.10510 0.49971 0.56664 0.16160 1.177 0.235 1238.685 0.01893
0.24593 0.10524 0.50037 0.56739 0.16348 0.713 0.211 1238.715 0.01896
0.24626 0.10538 0.50103 0.56813 0.16536 0.949 0.217 1238.745 0.01898
0.24658 0.10551 0.50169 0.56888 0.16724 0.695 0.193 1238.775 0.01901
0.24690 0.10565 0.50235 0.56963 0.16913 1.173 0.272 1238.805 0.01903
0.24723 0.10579 0.50300 0.57037 0.17101 1.122 0.231 1238.834 0.01905
0.24755 0.10593 0.50366 0.57112 0.17289 0.751 0.197 1238.864 0.01908
0.24787 0.10607 0.50432 0.57186 0.17477 0.834 0.206 1238.894 0.01910
0.24820 0.10621 0.50498 0.57261 0.17665 1.003 0.220 1238.924 0.01913
0.24852 0.10634 0.50564 0.57336 0.17854 0.863 0.208 1238.954 0.01915
0.24884 0.10648 0.50629 0.57410 0.18042 1.177 0.236 1238.984 0.01918
0.24917 0.10662 0.50695 0.57485 0.18230 1.120 0.231 1239.014 0.01920
0.24949 0.10676 0.50761 0.57560 0.18419 0.863 0.209 1239.044 0.01923
0.24981 0.10690 0.50827 0.57634 0.18607 1.493 0.259 1239.073 0.01925
0.25014 0.10704 0.50893 0.57709 0.18795 1.293 0.244 1239.103 0.01928
0.25046 0.10717 0.50958 0.57784 0.18983 1.208 0.239 1239.133 0.01930
0.25078 0.10731 0.51024 0.57858 0.19172 1.382 0.252 1239.163 0.01933
0.25111 0.10745 0.51090 0.57933 0.19360 0.754 0.200 1239.193 0.01935
0.25143 0.10759 0.51156 0.58007 0.19548 1.154 0.234 1239.223 0.01937
0.25176 0.10773 0.51222 0.58082 0.19737 1.241 0.241 1239.253 0.01940
0.25208 0.10787 0.51288 0.58157 0.19925 1.331 0.248 1239.283 0.01942
0.25240 0.10801 0.51353 0.58231 0.20113 0.986 0.220 1239.313 0.01945
0.25273 0.10814 0.51419 0.58306 0.20302 0.785 0.203 1239.342 0.01947
0.25305 0.10828 0.51485 0.58381 0.20490 0.988 0.221 1239.372 0.01950
0.25337 0.10842 0.51551 0.58455 0.20678 1.104 0.230 1239.402 0.01952
0.25370 0.10856 0.51617 0.58530 0.20867 1.075 0.228 1239.432 0.01955
0.25402 0.10870 0.51683 0.58605 0.21055 1.074 0.228 1239.462 0.01957
0.25434 0.10884 0.51749 0.58679 0.21243 1.188 0.237 1239.492 0.01960
0.25467 0.10898 0.51814 0.58754 0.21432 1.045 0.226 1239.522 0.01962
0.25499 0.10911 0.51880 0.58829 0.21620 1.044 0.226 1239.552 0.01964
0.25532 0.10925 0.51946 0.58904 0.21809 1.015 0.224 1239.581 0.01967
0.25564 0.10939 0.52012 0.58978 0.21997 1.388 0.252 1239.611 0.01969
0.25596 0.10953 0.52078 0.59053 0.22185 1.475 0.259 1239.641 0.01972
0.25629 0.10967 0.52144 0.59128 0.22374 1.016 0.224 1239.671 0.01974
0.25661 0.10981 0.52210 0.59202 0.22562 0.900 0.214 1239.701 0.01977
0.25693 0.10994 0.52275 0.59277 0.22751 0.959 0.219 1239.731 0.01979
0.25726 0.11008 0.52341 0.59352 0.22939 0.815 0.206 1239.761 0.01982
0.25758 0.11022 0.52407 0.59426 0.23128 1.132 0.233 1239.791 0.01984
0.25791 0.11036 0.52473 0.59501 0.23316 1.076 0.229 1239.820 0.01987
0.25823 0.11050 0.52539 0.59576 0.23504 1.567 0.265 1239.850 0.01989
0.25855 0.11064 0.52605 0.59650 0.23693 1.051 0.227 1239.880 0.01992
0.25888 0.11078 0.52671 0.59725 0.23881 0.938 0.217 1239.910 0.01994
0.25920 0.11091 0.52737 0.59800 0.24070 1.227 0.240 1239.940 0.01996
0.25952 0.11105 0.52803 0.59875 0.24258 1.025 0.224 1239.970 0.01999
0.25985 0.11119 0.52868 0.59949 0.24447 0.909 0.214 1240.000 0.02001
0.26017 0.11133 0.52934 0.60024 0.24635 0.678 0.192 1240.030 0.02004
0.26050 0.11147 0.53000 0.60099 0.24824 0.995 0.222 1240.059 0.02006
0.26082 0.11161 0.53066 0.60174 0.25012 0.880 0.211 1240.089 0.02009
0.26114 0.11175 0.53132 0.60248 0.25201 0.936 0.217 1240.119 0.02011
0.26147 0.11189 0.53198 0.60323 0.25389 1.108 0.232 1240.149 0.02014
0.26179 0.11202 0.53264 0.60398 0.25578 0.879 0.212 1240.179 0.02016
0.26212 0.11216 0.53330 0.60472 0.25766 1.140 0.234 1240.209 0.02019
0.26244 0.11230 0.53396 0.60547 0.25955 0.938 0.217 1240.239 0.02021
0.26276 0.11244 0.53462 0.60622 0.26144 0.891 0.214 1240.269 0.02023
0.26309 0.11258 0.53528 0.60697 0.26332 0.865 0.214 1240.299 0.02026
0.26341 0.11272 0.53593 0.60771 0.26521 1.114 0.236 1240.328 0.02028
0.26374 0.11286 0.53659 0.60846 0.26709 0.828 0.208 1240.358 0.02031
0.26406 0.11299 0.53725 0.60921 0.26898 1.191 0.241 1240.388 0.02033
0.26438 0.11313 0.53791 0.60996 0.27086 0.751 0.204 1240.418 0.02036
0.26471 0.11327 0.53857 0.61070 0.27275 0.841 0.212 1240.448 0.02038
0.26503 0.11341 0.53923 0.61145 0.27464 0.969 0.224 1240.478 0.02041
0.26536 0.11355 0.53989 0.61220 0.27652 1.195 0.243 1240.508 0.02043
0.26568 0.11369 0.54055 0.61295 0.27841 1.493 0.262 1240.538 0.02046
0.26600 0.11383 0.54121 0.61370 0.28029 0.924 0.220 1240.567 0.02048
0.26633 0.11396 0.54187 0.61444 0.28218 0.996 0.224 1240.597 0.02050
0.26665 0.11410 0.54253 0.61519 0.28407 0.935 0.220 1240.627 0.02053
0.26698 0.11424 0.54319 0.61594 0.28595 1.338 0.251 1240.657 0.02055
0.26730 0.11438 0.54385 0.61669 0.28784 0.729 0.201 1240.687 0.02058
0.26763 0.11452 0.54451 0.61743 0.28973 1.000 0.227 1240.717 0.02060
0.26795 0.11466 0.54517 0.61818 0.29161 0.874 0.216 1240.747 0.02063
0.26827 0.11480 0.54583 0.61893 0.29350 0.876 0.214 1240.777 0.02065
0.26860 0.11494 0.54648 0.61968 0.29539 0.789 0.205 1240.806 0.02068
0.26892 0.11507 0.54714 0.62043 0.29727 1.107 0.232 1240.836 0.02070
0.26925 0.11521 0.54780 0.62117 0.29916 0.875 0.212 1240.866 0.02073
0.26957 0.11535 0.54846 0.62192 0.30105 0.760 0.201 1240.896 0.02075
0.26989 0.11549 0.54912 0.62267 0.30293 0.877 0.211 1240.926 0.02078
0.27022 0.11563 0.54978 0.62342 0.30482 0.561 0.180 1240.956 0.02080
0.27054 0.11577 0.55044 0.62417 0.30671 0.561 0.180 1240.986 0.02082
0.27087 0.11591 0.55110 0.62491 0.30859 0.301 0.145 1241.016 0.02085
0.27119 0.11605 0.55176 0.62566 0.31048 0.186 0.131 1241.045 0.02087
0.27152 0.11618 0.55242 0.62641 0.31237 0.128 0.120 1241.075 0.02090
0.27184 0.11632 0.55308 0.62716 0.31426 0.043 0.107 1241.105 0.02092
0.27216 0.11646 0.55374 0.62791 0.31614 0.015 0.108 1241.135 0.02095
0.27249 0.11660 0.55440 0.62866 0.31803 0.073 0.113 1241.165 0.02097
0.27281 0.11674 0.55506 0.62940 0.31992 0.044 0.115 1241.195 0.02100
0.27314 0.11688 0.55572 0.63015 0.32181 0.073 0.115 1241.225 0.02102
0.27346 0.11702 0.55638 0.63090 0.32369 0.132 0.131 1241.255 0.02105
0.27379 0.11716 0.55704 0.63165 0.32558 -0.041 0.092 1241.285 0.02107
0.27411 0.11729 0.55770 0.63240 0.32747 0.102 0.120 1241.314 0.02109
0.27443 0.11743 0.55836 0.63315 0.32936 0.157 0.121 1241.344 0.02112
0.27476 0.11757 0.55902 0.63389 0.33125 0.101 0.121 1241.374 0.02114
0.27508 0.11771 0.55968 0.63464 0.33313 0.160 0.131 1241.404 0.02117
0.27541 0.11785 0.56034 0.63539 0.33502 0.303 0.150 1241.434 0.02119
0.27573 0.11799 0.56100 0.63614 0.33691 0.505 0.173 1241.464 0.02122
0.27606 0.11813 0.56166 0.63689 0.33880 0.735 0.198 1241.494 0.02124
0.27638 0.11827 0.56232 0.63764 0.34069 1.167 0.235 1241.524 0.02127
0.27671 0.11841 0.56298 0.63838 0.34258 0.765 0.200 1241.553 0.02129
0.27703 0.11854 0.56364 0.63913 0.34446 1.140 0.233 1241.583 0.02132
0.27736 0.11868 0.56430 0.63988 0.34635 0.940 0.221 1241.613 0.02134
0.27768 0.11882 0.56496 0.64063 0.34824 1.054 0.230 1241.643 0.02137
0.27800 0.11896 0.56562 0.64138 0.35013 1.025 0.226 1241.673 0.02139
0.27833 0.11910 0.56628 0.64213 0.35202 1.170 0.239 1241.703 0.02141
0.27865 0.11924 0.56694 0.64288 0.35391 1.087 0.235 1241.733 0.02144
0.27898 0.11938 0.56760 0.64363 0.35580 1.143 0.236 1241.763 0.02146
0.27930 0.11952 0.56826 0.64437 0.35769 1.343 0.254 1241.792 0.02149
0.27963 0.11966 0.56892 0.64512 0.35957 0.856 0.216 1241.822 0.02151
0.27995 0.11979 0.56959 0.64587 0.36146 1.227 0.245 1241.852 0.02154
0.28028 0.11993 0.57025 0.64662 0.36335 1.284 0.247 1241.882 0.02156
0.28060 0.12007 0.57091 0.64737 0.36524 0.910 0.220 1241.912 0.02159
0.28093 0.12021 0.57157 0.64812 0.36713 0.996 0.225 1241.942 0.02161
0.28125 0.12035 0.57223 0.64887 0.36902 1.225 0.243 1241.972 0.02164
0.28157 0.12049 0.57289 0.64962 0.37091 0.683 0.200 1242.002 0.02166
0.28190 0.12063 0.57355 0.65037 0.37280 0.997 0.227 1242.031 0.02168
0.28222 0.12077 0.57421 0.65111 0.37469 1.081 0.231 1242.061 0.02171
0.28255 0.12091 0.57487 0.65186 0.37658 1.080 0.232 1242.091 0.02173
0.28287 0.12104 0.57553 0.65261 0.37847 1.051 0.232 1242.121 0.02176
0.28320 0.12118 0.57619 0.65336 0.38036 1.080 0.234 1242.151 0.02178
0.28352 0.12132 0.57685 0.65411 0.38225 1.049 0.229 1242.181 0.02181
0.28385 0.12146 0.57751 0.65486 0.38414 1.192 0.240 1242.211 0.02183
0.28417 0.12160 0.57817 0.65561 0.38603 1.134 0.234 1242.241 0.02186
0.28450 0.12174 0.57883 0.65636 0.38792 0.848 0.215 1242.271 0.02188
0.28482 0.12188 0.57949 0.65711 0.38981 0.650 0.196 1242.300 0.02191
0.28515 0.12202 0.58015 0.65786 0.39170 0.965 0.224 1242.330 0.02193
0.28547 0.12216 0.58082 0.65861 0.39359 1.307 0.250 1242.360 0.02196
0.28580 0.12230 0.58148 0.65936 0.39548 1.106 0.235 1242.390 0.02198
0.28612 0.12243 0.58214 0.66011 0.39737 1.334 0.250 1242.420 0.02200
0.28645 0.12257 0.58280 0.66085 0.39926 0.879 0.216 1242.450 0.02203
0.28677 0.12271 0.58346 0.66160 0.40115 0.964 0.224 1242.480 0.02205
0.28710 0.12285 0.58412 0.66235 0.40304 0.707 0.201 1242.510 0.02208
0.28742 0.12299 0.58478 0.66310 0.40493 0.648 0.195 1242.539 0.02210
0.28775 0.12313 0.58544 0.66385 0.40682 0.704 0.201 1242.569 0.02213
0.28807 0.12327 0.58610 0.66460 0.40871 0.560 0.187 1242.599 0.02215
0.28839 0.12341 0.58676 0.66535 0.41060 1.042 0.225 1242.629 0.02218
0.28872 0.12355 0.58742 0.66610 0.41249 0.928 0.218 1242.659 0.02220
0.28904 0.12369 0.58809 0.66685 0.41438 0.813 0.208 1242.689 0.02223
0.28937 0.12382 0.58875 0.66760 0.41628 0.839 0.208 1242.719 0.02225
0.28969 0.12396 0.58941 0.66835 0.41817 1.065 0.225 1242.749 0.02227
0.29002 0.12410 0.59007 0.66910 0.42006 0.866 0.208 1242.778 0.02230
0.29034 0.12424 0.59073 0.66985 0.42195 0.809 0.202 1242.808 0.02232
0.29067 0.12438 0.59139 0.67060 0.42384 1.147 0.232 1242.838 0.02235
0.29099 0.12452 0.59205 0.67135 0.42573 1.175 0.233 1242.868 0.02237
0.29132 0.12466 0.59271 0.67210 0.42762 0.892 0.210 1242.898 0.02240
0.29164 0.12480 0.59338 0.67285 0.42951 1.005 0.220 1242.928 0.02242
0.29197 0.12494 0.59404 0.67360 0.43141 1.003 0.220 1242.958 0.02245
0.29229 0.12508 0.59470 0.67435 0.43330 0.749 0.196 1242.988 0.02247
0.29262 0.12521 0.59536 0.67510 0.43519 0.890 0.209 1243.017 0.02250
0.29294 0.12535 0.59602 0.67585 0.43708 1.060 0.224 1243.047 0.02252
0.29327 0.12549 0.59668 0.67660 0.43897 0.805 0.202 1243.077 0.02254
0.29359 0.12563 0.59734 0.67735 0.44087 0.862 0.207 1243.107 0.02257
0.29392 0.12577 0.59800 0.67810 0.44276 0.721 0.194 1243.137 0.02259
0.29424 0.12591 0.59867 0.67885 0.44465 0.775 0.199 1243.167 0.02262
0.29457 0.12605 0.59933 0.67960 0.44654 0.970 0.216 1243.197 0.02264
0.29490 0.12619 0.59999 0.68035 0.44843 1.166 0.233 1243.227 0.02267
0.29522 0.12633 0.60065 0.68110 0.45033 1.194 0.234 1243.257 0.02269
0.29555 0.12647 0.60131 0.68185 0.45222 1.165 0.232 1243.286 0.02272
0.29587 0.12661 0.60197 0.68260 0.45411 0.798 0.201 1243.316 0.02274
0.29620 0.12675 0.60264 0.68335 0.45600 1.078 0.225 1243.346 0.02277
0.29652 0.12688 0.60330 0.68410 0.45790 0.768 0.198 1243.376 0.02279
0.29685 0.12702 0.60396 0.68485 0.45979 0.935 0.213 1243.406 0.02282
0.29717 0.12716 0.60462 0.68560 0.46168 1.270 0.240 1243.436 0.02284
0.29750 0.12730 0.60528 0.68635 0.46357 0.961 0.215 1243.466 0.02286
0.29782 0.12744 0.60594 0.68710 0.46547 0.680 0.189 1243.496 0.02289
0.29815 0.12758 0.60661 0.68785 0.46736 1.127 0.229 1243.525 0.02291
0.29847 0.12772 0.60727 0.68860 0.46925 0.959 0.215 1243.555 0.02294
0.29880 0.12786 0.60793 0.68935 0.47114 1.042 0.221 1243.585 0.02296
0.29912 0.12800 0.60859 0.69010 0.47304 0.988 0.217 1243.615 0.02299
0.29945 0.12814 0.60925 0.69085 0.47493 1.266 0.239 1243.645 0.02301
0.29977 0.12828 0.60991 0.69160 0.47682 1.183 0.233 1243.675 0.02304
0.30010 0.12842 0.61058 0.69235 0.47872 1.127 0.228 1243.705 0.02306
0.30042 0.12855 0.61124 0.69310 0.48061 0.849 0.205 1243.735 0.02309
0.30075 0.12869 0.61190 0.69385 0.48250 0.932 0.212 1243.764 0.02311
0.30107 0.12883 0.61256 0.69461 0.48440 1.237 0.236 1243.794 0.02313
0.30140 0.12897 0.61322 0.69536 0.48629 0.819 0.202 1243.824 0.02316
0.30173 0.12911 0.61389 0.69611 0.48818 1.015 0.218 1243.854 0.02318
0.30205 0.12925 0.61455 0.69686 0.49008 0.909 0.211 1243.884 0.02321
0.30238 0.12939 0.61521 0.69761 0.49197 1.194 0.233 1243.914 0.02323
0.30270 0.12953 0.61587 0.69836 0.49387 0.723 0.195 1243.944 0.02326
0.30303 0.12967 0.61653 0.69911 0.49576 0.933 0.213 1243.974 0.02328
0.30335 0.12981 0.61720 0.69986 0.49765 1.167 0.233 1244.003 0.02331
0.30368 0.12995 0.61786 0.70061 0.49955 0.834 0.206 1244.033 0.02333
0.30400 0.13009 0.61852 0.70136 0.50144 0.913 0.213 1244.063 0.02336
0.30433 0.13023 0.61918 0.70211 0.50334 0.881 0.208 1244.093 0.02338
0.30465 0.13036 0.61984 0.70286 0.50523 0.907 0.213 1244.123 0.02341
0.30498 0.13050 0.62051 0.70361 0.50712 0.954 0.217 1244.153 0.02343
0.30531 0.13064 0.62117 0.70437 0.50902 1.052 0.222 1244.183 0.02345
0.30563 0.13078 0.62183 0.70512 0.51091 0.724 0.195 1244.213 0.02348
0.30596 0.13092 0.62249 0.70587 0.51281 0.780 0.203 1244.243 0.02350
0.30628 0.13106 0.62316 0.70662 0.51470 0.560 0.178 1244.272 0.02353
0.30661 0.13120 0.62382 0.70737 0.51660 0.667 0.193 1244.302 0.02355
0.30693 0.13134 0.62448 0.70812 0.51849 0.588 0.178 1244.332 0.02358
0.30726 0.13148 0.62514 0.70887 0.52039 0.569 0.178 1244.362 0.02360
0.30758 0.13162 0.62581 0.70962 0.52228 0.650 0.186 1244.392 0.02363
0.30791 0.13176 0.62647 0.71037 0.52418 0.627 0.186 1244.422 0.02365
0.30824 0.13190 0.62713 0.71112 0.52607 0.533 0.172 1244.452 0.02368
0.30856 0.13204 0.62779 0.71188 0.52797 0.475 0.165 1244.482 0.02370
0.30889 0.13218 0.62846 0.71263 0.52986 0.391 0.154 1244.511 0.02372
0.30921 0.13232 0.62912 0.71338 0.53176 0.362 0.151 1244.541 0.02375
0.30954 0.13245 0.62978 0.71413 0.53365 0.361 0.151 1244.571 0.02377
0.30986 0.13259 0.63044 0.71488 0.53555 0.360 0.150 1244.601 0.02380
0.31019 0.13273 0.63111 0.71563 0.53744 0.689 0.188 1244.631 0.02382
0.31051 0.13287 0.63177 0.71638 0.53934 0.661 0.185 1244.661 0.02385
0.31084 0.13301 0.63243 0.71714 0.54123 0.799 0.198 1244.691 0.02387
