x y z dist_scaled dist_frac flux_norm sig_norm wavelength redshift
0.01612 0.02589 0.04848 0.05727 0.00000 1.326 0.315 1568.036 0.01282
0.01615 0.02593 0.04857 0.05738 0.00106 1.410 0.321 1568.072 0.01284
0.01618 0.02598 0.04866 0.05749 0.00212 1.538 0.333 1568.109 0.01286
0.01621 0.02603 0.04875 0.05759 0.00318 1.076 0.294 1568.146 0.01289
0.01624 0.02608 0.04884 0.05770 0.00425 1.038 0.291 1568.183 0.01291
0.01627 0.02613 0.04893 0.05781 0.00531 1.205 0.306 1568.219 0.01293
0.01630 0.02618 0.04902 0.05791 0.00637 0.747 0.262 1568.256 0.01296
0.01633 0.02622 0.04911 0.05802 0.00743 0.591 0.243 1568.293 0.01298
0.01636 0.02627 0.04920 0.05813 0.00849 0.888 0.271 1568.329 0.01301
0.01639 0.02632 0.04929 0.05824 0.00956 1.449 0.326 1568.366 0.01303
0.01642 0.02637 0.04938 0.05834 0.01062 0.894 0.272 1568.403 0.01305
0.01645 0.02642 0.04947 0.05845 0.01168 1.184 0.300 1568.440 0.01308
0.01648 0.02647 0.04956 0.05856 0.01274 0.879 0.277 1568.476 0.01310
0.01651 0.02651 0.04966 0.05866 0.01380 0.934 0.277 1568.513 0.01312
0.01654 0.02656 0.04975 0.05877 0.01487 0.669 0.249 1568.550 0.01315
0.01657 0.02661 0.04984 0.05888 0.01593 0.728 0.260 1568.586 0.01317
0.01660 0.02666 0.04993 0.05898 0.01699 0.977 0.286 1568.623 0.01319
0.01663 0.02671 0.05002 0.05909 0.01805 1.108 0.294 1568.660 0.01322
0.01666 0.02676 0.05011 0.05920 0.01911 1.198 0.303 1568.697 0.01324
0.01669 0.02681 0.05020 0.05931 0.02018 0.990 0.283 1568.733 0.01327
0.01672 0.02685 0.05029 0.05941 0.02124 0.895 0.275 1568.770 0.01329
0.01675 0.02690 0.05038 0.05952 0.02230 1.348 0.320 1568.807 0.01331
0.01678 0.02695 0.05047 0.05963 0.02336 0.810 0.272 1568.843 0.01334
0.01681 0.02700 0.05056 0.05973 0.02443 0.942 0.285 1568.880 0.01336
0.01684 0.02705 0.05065 0.05984 0.02549 0.772 0.268 1568.917 0.01338
0.01687 0.02710 0.05074 0.05995 0.02655 1.164 0.307 1568.954 0.01341
0.01690 0.02714 0.05083 0.06006 0.02761 0.645 0.253 1568.990 0.01343
0.01693 0.02719 0.05092 0.06016 0.02868 0.602 0.249 1569.027 0.01346
0.01697 0.02724 0.05102 0.06027 0.02974 0.732 0.264 1569.064 0.01348
0.01700 0.02729 0.05111 0.06038 0.03080 0.906 0.283 1569.100 0.01350
0.01703 0.02734 0.05120 0.06048 0.03186 1.082 0.300 1569.137 0.01353
0.01706 0.02739 0.05129 0.06059 0.03293 0.908 0.284 1569.174 0.01355
0.01709 0.02743 0.05138 0.06070 0.03399 1.040 0.297 1569.211 0.01357
0.01712 0.02748 0.05147 0.06081 0.03505 0.739 0.266 1569.247 0.01360
0.01715 0.02753 0.05156 0.06091 0.03611 1.308 0.320 1569.284 0.01362
0.01718 0.02758 0.05165 0.06102 0.03718 0.745 0.266 1569.321 0.01365
0.01721 0.02763 0.05174 0.06113 0.03824 0.963 0.289 1569.357 0.01367
0.01724 0.02768 0.05183 0.06123 0.03930 1.271 0.319 1569.394 0.01369
0.01727 0.02773 0.05192 0.06134 0.04037 0.965 0.290 1569.431 0.01372
0.01730 0.02777 0.05201 0.06145 0.04143 0.893 0.282 1569.468 0.01374
0.01733 0.02782 0.05210 0.06156 0.04249 1.158 0.308 1569.504 0.01376
0.01736 0.02787 0.05219 0.06166 0.04355 1.242 0.311 1569.541 0.01379
0.01739 0.02792 0.05228 0.06177 0.04462 1.203 0.312 1569.578 0.01381
0.01742 0.02797 0.05238 0.06188 0.04568 1.214 0.313 1569.614 0.01384
0.01745 0.02802 0.05247 0.06198 0.04674 1.365 0.325 1569.651 0.01386
0.01748 0.02806 0.05256 0.06209 0.04781 1.143 0.305 1569.688 0.01388
0.01751 0.02811 0.05265 0.06220 0.04887 0.891 0.279 1569.725 0.01391
0.01754 0.02816 0.05274 0.06231 0.04993 0.549 0.244 1569.761 0.01393
0.01757 0.02821 0.05283 0.06241 0.05100 1.186 0.311 1569.798 0.01395
0.01760 0.02826 0.05292 0.06252 0.05206 1.165 0.307 1569.835 0.01398
0.01763 0.02831 0.05301 0.06263 0.05312 0.866 0.281 1569.871 0.01400
0.01766 0.02835 0.05310 0.06273 0.05419 1.021 0.295 1569.908 0.01402
0.01769 0.02840 0.05319 0.06284 0.05525 1.242 0.313 1569.945 0.01405
0.01772 0.02845 0.05328 0.06295 0.05631 1.147 0.309 1569.982 0.01407
0.01775 0.02850 0.05337 0.06306 0.05738 1.659 0.355 1570.018 0.01410
0.01778 0.02855 0.05346 0.06316 0.05844 0.903 0.288 1570.055 0.01412
0.01781 0.02860 0.05355 0.06327 0.05951 0.636 0.258 1570.092 0.01414
0.01784 0.02865 0.05365 0.06338 0.06057 1.442 0.338 1570.128 0.01417
0.01787 0.02869 0.05374 0.06348 0.06163 0.998 0.297 1570.165 0.01419
0.01790 0.02874 0.05383 0.06359 0.06270 1.406 0.335 1570.202 0.01421
0.01793 0.02879 0.05392 0.06370 0.06376 1.407 0.335 1570.239 0.01424
0.01796 0.02884 0.05401 0.06381 0.06482 0.957 0.294 1570.275 0.01426
0.01799 0.02889 0.05410 0.06391 0.06589 1.004 0.299 1570.312 0.01429
0.01802 0.02894 0.05419 0.06402 0.06695 0.553 0.249 1570.349 0.01431
0.01805 0.02898 0.05428 0.06413 0.06802 1.050 0.304 1570.385 0.01433
0.01808 0.02903 0.05437 0.06424 0.06908 0.826 0.281 1570.422 0.01436
0.01811 0.02908 0.05446 0.06434 0.07014 0.962 0.296 1570.459 0.01438
0.01814 0.02913 0.05455 0.06445 0.07121 0.826 0.282 1570.496 0.01440
0.01817 0.02918 0.05464 0.06456 0.07227 1.143 0.314 1570.532 0.01443
0.01820 0.02923 0.05473 0.06466 0.07334 0.964 0.297 1570.569 0.01445
0.01823 0.02928 0.05483 0.06477 0.07440 1.101 0.310 1570.606 0.01448
0.01826 0.02932 0.05492 0.06488 0.07546 0.965 0.297 1570.642 0.01450
0.01829 0.02937 0.05501 0.06499 0.07653 1.285 0.327 1570.679 0.01452
0.01832 0.02942 0.05510 0.06509 0.07759 0.922 0.292 1570.716 0.01455
0.01835 0.02947 0.05519 0.06520 0.07866 0.968 0.299 1570.753 0.01457
0.01838 0.02952 0.05528 0.06531 0.07972 1.881 0.377 1570.789 0.01459
0.01841 0.02957 0.05537 0.06541 0.08079 0.971 0.299 1570.826 0.01462
0.01844 0.02962 0.05546 0.06552 0.08185 1.016 0.304 1570.863 0.01464
0.01847 0.02966 0.05555 0.06563 0.08291 1.158 0.318 1570.899 0.01467
0.01850 0.02971 0.05564 0.06574 0.08398 1.573 0.354 1570.936 0.01469
0.01853 0.02976 0.05573 0.06584 0.08504 0.930 0.296 1570.973 0.01471
0.01856 0.02981 0.05582 0.06595 0.08611 0.745 0.276 1571.010 0.01474
0.01859 0.02986 0.05592 0.06606 0.08717 1.161 0.319 1571.046 0.01476
0.01862 0.02991 0.05601 0.06617 0.08824 0.746 0.277 1571.083 0.01478
0.01866 0.02995 0.05610 0.06627 0.08930 1.208 0.323 1571.120 0.01481
0.01869 0.03000 0.05619 0.06638 0.09037 0.978 0.302 1571.156 0.01483
0.01872 0.03005 0.05628 0.06649 0.09143 1.161 0.320 1571.193 0.01485
0.01875 0.03010 0.05637 0.06660 0.09250 1.070 0.310 1571.230 0.01488
0.01878 0.03015 0.05646 0.06670 0.09356 0.838 0.289 1571.267 0.01490
0.01881 0.03020 0.05655 0.06681 0.09463 1.165 0.321 1571.303 0.01493
0.01884 0.03025 0.05664 0.06692 0.09569 0.747 0.279 1571.340 0.01495
0.01887 0.03029 0.05673 0.06702 0.09676 0.743 0.278 1571.377 0.01497
0.01890 0.03034 0.05682 0.06713 0.09782 0.978 0.304 1571.413 0.01500
0.01893 0.03039 0.05691 0.06724 0.09889 1.026 0.309 1571.450 0.01502
0.01896 0.03044 0.05701 0.06735 0.09995 0.606 0.263 1571.487 0.01504
0.01899 0.03049 0.05710 0.06745 0.10102 0.981 0.305 1571.524 0.01507
0.01902 0.03054 0.05719 0.06756 0.10208 1.215 0.328 1571.560 0.01509
0.01905 0.03059 0.05728 0.06767 0.10315 0.982 0.306 1571.597 0.01512
0.01908 0.03063 0.05737 0.06778 0.10421 0.984 0.306 1571.634 0.01514
0.01911 0.03068 0.05746 0.06788 0.10528 1.125 0.321 1571.670 0.01516
0.01914 0.03073 0.05755 0.06799 0.10634 1.126 0.321 1571.707 0.01519
0.01917 0.03078 0.05764 0.06810 0.10741 0.610 0.265 1571.744 0.01521
0.01920 0.03083 0.05773 0.06821 0.10847 1.129 0.322 1571.781 0.01523
0.01923 0.03088 0.05782 0.06831 0.10954 0.659 0.272 1571.817 0.01526
0.01926 0.03092 0.05791 0.06842 0.11060 1.179 0.327 1571.854 0.01528
0.01929 0.03097 0.05801 0.06853 0.11167 1.085 0.318 1571.891 0.01531
0.01932 0.03102 0.05810 0.06864 0.11273 0.946 0.304 1571.927 0.01533
0.01935 0.03107 0.05819 0.06874 0.11380 1.135 0.323 1571.964 0.01535
0.01938 0.03112 0.05828 0.06885 0.11487 1.039 0.313 1572.001 0.01538
0.01941 0.03117 0.05837 0.06896 0.11593 1.323 0.341 1572.037 0.01540
0.01944 0.03122 0.05846 0.06906 0.11700 0.895 0.299 1572.074 0.01542
0.01947 0.03126 0.05855 0.06917 0.11806 0.752 0.284 1572.111 0.01545
0.01950 0.03131 0.05864 0.06928 0.11913 0.608 0.268 1572.148 0.01547
0.01953 0.03136 0.05873 0.06939 0.12019 0.465 0.250 1572.184 0.01550
0.01956 0.03141 0.05882 0.06949 0.12126 0.992 0.311 1572.221 0.01552
0.01959 0.03146 0.05891 0.06960 0.12233 1.615 0.368 1572.258 0.01554
0.01962 0.03151 0.05901 0.06971 0.12339 1.187 0.331 1572.294 0.01557
0.01965 0.03156 0.05910 0.06982 0.12446 0.661 0.275 1572.331 0.01559
0.01968 0.03160 0.05919 0.06992 0.12552 0.949 0.308 1572.368 0.01561
0.01971 0.03165 0.05928 0.07003 0.12659 0.661 0.277 1572.405 0.01564
0.01974 0.03170 0.05937 0.07014 0.12766 1.048 0.317 1572.441 0.01566
0.01977 0.03175 0.05946 0.07025 0.12872 0.666 0.277 1572.478 0.01568
0.01980 0.03180 0.05955 0.07035 0.12979 1.245 0.337 1572.515 0.01571
0.01983 0.03185 0.05964 0.07046 0.13085 1.049 0.319 1572.551 0.01573
0.01986 0.03190 0.05973 0.07057 0.13192 0.665 0.278 1572.588 0.01576
0.01989 0.03194 0.05982 0.07068 0.13299 1.149 0.329 1572.625 0.01578
0.01992 0.03199 0.05992 0.07078 0.13405 0.621 0.273 1572.662 0.01580
0.01995 0.03204 0.06001 0.07089 0.13512 0.960 0.310 1572.698 0.01583
0.01999 0.03209 0.06010 0.07100 0.13618 0.769 0.289 1572.735 0.01585
0.02002 0.03214 0.06019 0.07111 0.13725 0.966 0.311 1572.772 0.01587
0.02005 0.03219 0.06028 0.07121 0.13832 1.016 0.316 1572.808 0.01590
0.02008 0.03224 0.06037 0.07132 0.13938 0.773 0.291 1572.845 0.01592
0.02011 0.03228 0.06046 0.07143 0.14045 0.871 0.301 1572.882 0.01595
0.02014 0.03233 0.06055 0.07154 0.14152 1.311 0.345 1572.919 0.01597
0.02017 0.03238 0.06064 0.07164 0.14258 0.970 0.313 1572.955 0.01599
0.02020 0.03243 0.06073 0.07175 0.14365 0.871 0.302 1572.992 0.01602
0.02023 0.03248 0.06082 0.07186 0.14472 1.067 0.324 1573.029 0.01604
0.02026 0.03253 0.06092 0.07197 0.14578 0.970 0.314 1573.065 0.01606
0.02029 0.03258 0.06101 0.07207 0.14685 0.971 0.314 1573.102 0.01609
0.02032 0.03262 0.06110 0.07218 0.14792 0.872 0.304 1573.139 0.01611
0.02035 0.03267 0.06119 0.07229 0.14898 1.410 0.356 1573.176 0.01614
0.02038 0.03272 0.06128 0.07240 0.15005 1.066 0.324 1573.212 0.01616
0.02041 0.03277 0.06137 0.07250 0.15112 0.921 0.310 1573.249 0.01618
0.02044 0.03282 0.06146 0.07261 0.15218 1.265 0.344 1573.286 0.01621
0.02047 0.03287 0.06155 0.07272 0.15325 1.659 0.376 1573.322 0.01623
0.02050 0.03292 0.06164 0.07283 0.15432 0.678 0.282 1573.359 0.01625
0.02053 0.03297 0.06174 0.07293 0.15538 0.778 0.295 1573.396 0.01628
0.02056 0.03301 0.06183 0.07304 0.15645 1.173 0.336 1573.433 0.01630
0.02059 0.03306 0.06192 0.07315 0.15752 0.877 0.307 1573.469 0.01633
0.02062 0.03311 0.06201 0.07326 0.15859 0.581 0.271 1573.506 0.01635
0.02065 0.03316 0.06210 0.07336 0.15965 1.175 0.337 1573.543 0.01637
0.02068 0.03321 0.06219 0.07347 0.16072 1.227 0.342 1573.579 0.01640
0.02071 0.03326 0.06228 0.07358 0.16179 0.781 0.297 1573.616 0.01642
0.02074 0.03331 0.06237 0.07369 0.16285 1.079 0.329 1573.653 0.01644
0.02077 0.03335 0.06246 0.07379 0.16392 1.080 0.329 1573.690 0.01647
0.02080 0.03340 0.06255 0.07390 0.16499 0.484 0.257 1573.726 0.01649
0.02083 0.03345 0.06265 0.07401 0.16606 0.935 0.314 1573.763 0.01651
0.02086 0.03350 0.06274 0.07412 0.16712 0.403 0.247 1573.800 0.01654
0.02089 0.03355 0.06283 0.07423 0.16819 0.998 0.314 1573.836 0.01656
0.02092 0.03360 0.06292 0.07433 0.16926 1.109 0.329 1573.873 0.01659
0.02095 0.03365 0.06301 0.07444 0.17033 1.264 0.345 1573.910 0.01661
0.02098 0.03369 0.06310 0.07455 0.17139 1.303 0.349 1573.947 0.01663
0.02101 0.03374 0.06319 0.07466 0.17246 1.098 0.331 1573.983 0.01666
0.02104 0.03379 0.06328 0.07476 0.17353 0.931 0.310 1574.020 0.01668
0.02108 0.03384 0.06337 0.07487 0.17460 1.071 0.324 1574.057 0.01670
0.02111 0.03389 0.06347 0.07498 0.17566 1.393 0.354 1574.093 0.01673
0.02114 0.03394 0.06356 0.07509 0.17673 0.729 0.288 1574.130 0.01675
0.02117 0.03399 0.06365 0.07519 0.17780 0.647 0.277 1574.167 0.01678
0.02120 0.03403 0.06374 0.07530 0.17887 0.871 0.305 1574.204 0.01680
0.02123 0.03408 0.06383 0.07541 0.17994 1.515 0.370 1574.240 0.01682
0.02126 0.03413 0.06392 0.07552 0.18100 0.944 0.312 1574.277 0.01685
0.02129 0.03418 0.06401 0.07562 0.18207 1.021 0.323 1574.314 0.01687
0.02132 0.03423 0.06410 0.07573 0.18314 0.927 0.313 1574.350 0.01689
0.02135 0.03428 0.06419 0.07584 0.18421 1.103 0.334 1574.387 0.01692
0.02138 0.03433 0.06429 0.07595 0.18528 1.457 0.367 1574.424 0.01694
0.02141 0.03438 0.06438 0.07605 0.18634 1.108 0.335 1574.461 0.01697
0.02144 0.03442 0.06447 0.07616 0.18741 1.059 0.329 1574.497 0.01699
0.02147 0.03447 0.06456 0.07627 0.18848 1.113 0.334 1574.534 0.01701
0.02150 0.03452 0.06465 0.07638 0.18955 0.862 0.309 1574.571 0.01704
0.02153 0.03457 0.06474 0.07649 0.19062 0.914 0.315 1574.607 0.01706
0.02156 0.03462 0.06483 0.07659 0.19168 1.117 0.336 1574.644 0.01708
0.02159 0.03467 0.06492 0.07670 0.19275 1.016 0.326 1574.681 0.01711
0.02162 0.03472 0.06501 0.07681 0.19382 0.815 0.304 1574.718 0.01713
0.02165 0.03476 0.06511 0.07692 0.19489 0.814 0.304 1574.754 0.01715
0.02168 0.03481 0.06520 0.07702 0.19596 1.274 0.351 1574.791 0.01718
0.02171 0.03486 0.06529 0.07713 0.19703 1.019 0.327 1574.828 0.01720
0.02174 0.03491 0.06538 0.07724 0.19809 0.816 0.305 1574.864 0.01723
0.02177 0.03496 0.06547 0.07735 0.19916 0.918 0.313 1574.901 0.01725
0.02180 0.03501 0.06556 0.07745 0.20023 1.327 0.357 1574.938 0.01727
0.02183 0.03506 0.06565 0.07756 0.20130 0.663 0.287 1574.975 0.01730
0.02186 0.03511 0.06574 0.07767 0.20237 0.969 0.323 1575.011 0.01732
0.02189 0.03515 0.06583 0.07778 0.20344 0.867 0.313 1575.048 0.01734
0.02192 0.03520 0.06593 0.07789 0.20451 0.818 0.307 1575.085 0.01737
0.02195 0.03525 0.06602 0.07799 0.20557 1.022 0.329 1575.121 0.01739
0.02198 0.03530 0.06611 0.07810 0.20664 1.075 0.335 1575.158 0.01742
0.02201 0.03535 0.06620 0.07821 0.20771 0.919 0.318 1575.195 0.01744
0.02204 0.03540 0.06629 0.07832 0.20878 0.815 0.308 1575.232 0.01746
0.02208 0.03545 0.06638 0.07842 0.20985 0.867 0.314 1575.268 0.01749
0.02211 0.03550 0.06647 0.07853 0.21092 1.075 0.336 1575.305 0.01751
0.02214 0.03554 0.06656 0.07864 0.21199 0.973 0.325 1575.342 0.01753
0.02217 0.03559 0.06666 0.07875 0.21306 0.767 0.303 1575.378 0.01756
0.02220 0.03564 0.06675 0.07886 0.21413 0.666 0.291 1575.415 0.01758
0.02223 0.03569 0.06684 0.07896 0.21519 0.923 0.320 1575.452 0.01761
0.02226 0.03574 0.06693 0.07907 0.21626 1.079 0.338 1575.489 0.01763
0.02229 0.03579 0.06702 0.07918 0.21733 1.081 0.338 1575.525 0.01765
0.02232 0.03584 0.06711 0.07929 0.21840 0.676 0.290 1575.562 0.01768
0.02235 0.03588 0.06720 0.07939 0.21947 0.834 0.310 1575.599 0.01770
0.02238 0.03593 0.06729 0.07950 0.22054 1.429 0.367 1575.635 0.01772
0.02241 0.03598 0.06739 0.07961 0.22161 0.894 0.317 1575.672 0.01775
0.02244 0.03603 0.06748 0.07972 0.22268 1.276 0.353 1575.709 0.01777
0.02247 0.03608 0.06757 0.07983 0.22375 0.942 0.322 1575.746 0.01780
0.02250 0.03613 0.06766 0.07993 0.22482 1.010 0.327 1575.782 0.01782
0.02253 0.03618 0.06775 0.08004 0.22589 1.012 0.329 1575.819 0.01784
0.02256 0.03623 0.06784 0.08015 0.22696 0.964 0.323 1575.856 0.01787
0.02259 0.03627 0.06793 0.08026 0.22803 0.912 0.317 1575.892 0.01789
0.02262 0.03632 0.06802 0.08036 0.22910 0.901 0.318 1575.929 0.01791
0.02265 0.03637 0.06812 0.08047 0.23017 0.898 0.319 1575.966 0.01794
0.02268 0.03642 0.06821 0.08058 0.23124 0.537 0.273 1576.003 0.01796
0.02271 0.03647 0.06830 0.08069 0.23231 0.697 0.295 1576.039 0.01798
0.02274 0.03652 0.06839 0.08080 0.23337 0.750 0.300 1576.076 0.01801
0.02277 0.03657 0.06848 0.08090 0.23444 1.263 0.357 1576.113 0.01803
0.02280 0.03662 0.06857 0.08101 0.23551 0.949 0.324 1576.149 0.01806
0.02283 0.03666 0.06866 0.08112 0.23658 1.313 0.362 1576.186 0.01808
0.02286 0.03671 0.06875 0.08123 0.23765 0.782 0.308 1576.223 0.01810
0.02289 0.03676 0.06885 0.08133 0.23872 0.784 0.308 1576.260 0.01813
0.02292 0.03681 0.06894 0.08144 0.23979 1.097 0.342 1576.296 0.01815
0.02296 0.03686 0.06903 0.08155 0.24086 1.257 0.358 1576.333 0.01817
0.02299 0.03691 0.06912 0.08166 0.24193 0.836 0.315 1576.370 0.01820
0.02302 0.03696 0.06921 0.08177 0.24300 0.994 0.332 1576.406 0.01822
0.02305 0.03701 0.06930 0.08187 0.24407 0.680 0.297 1576.443 0.01825
0.02308 0.03705 0.06939 0.08198 0.24514 1.208 0.354 1576.480 0.01827
0.02311 0.03710 0.06948 0.08209 0.24621 0.946 0.328 1576.517 0.01829
0.02314 0.03715 0.06958 0.08220 0.24728 1.313 0.365 1576.553 0.01832
0.02317 0.03720 0.06967 0.08231 0.24835 1.046 0.339 1576.590 0.01834
0.02320 0.03725 0.06976 0.08241 0.24942 1.099 0.345 1576.627 0.01836
0.02323 0.03730 0.06985 0.08252 0.25050 1.046 0.339 1576.663 0.01839
0.02326 0.03735 0.06994 0.08263 0.25157 0.834 0.317 1576.700 0.01841
0.02329 0.03740 0.07003 0.08274 0.25264 0.992 0.335 1576.737 0.01844
0.02332 0.03744 0.07012 0.08284 0.25371 0.780 0.312 1576.774 0.01846
0.02335 0.03749 0.07022 0.08295 0.25478 1.099 0.346 1576.810 0.01848
0.02338 0.03754 0.07031 0.08306 0.25585 0.892 0.324 1576.847 0.01851
0.02341 0.03759 0.07040 0.08317 0.25692 0.890 0.323 1576.884 0.01853
0.02344 0.03764 0.07049 0.08328 0.25799 0.572 0.285 1576.920 0.01855
0.02347 0.03769 0.07058 0.08338 0.25906 0.995 0.336 1576.957 0.01858
0.02350 0.03774 0.07067 0.08349 0.26013 0.837 0.319 1576.994 0.01860
0.02353 0.03779 0.07076 0.08360 0.26120 0.997 0.332 1577.031 0.01863
0.02356 0.03783 0.07085 0.08371 0.26227 0.839 0.319 1577.067 0.01865
0.02359 0.03788 0.07095 0.08382 0.26334 1.534 0.388 1577.104 0.01867
0.02362 0.03793 0.07104 0.08392 0.26441 0.950 0.331 1577.141 0.01870
0.02365 0.03798 0.07113 0.08403 0.26548 1.213 0.359 1577.177 0.01872
0.02368 0.03803 0.07122 0.08414 0.26655 1.107 0.348 1577.214 0.01874
0.02371 0.03808 0.07131 0.08425 0.26762 0.838 0.320 1577.251 0.01877
0.02374 0.03813 0.07140 0.08436 0.26870 0.784 0.314 1577.287 0.01879
0.02378 0.03818 0.07149 0.08446 0.26977 1.479 0.384 1577.324 0.01881
0.02381 0.03822 0.07159 0.08457 0.27084 1.267 0.365 1577.361 0.01884
0.02384 0.03827 0.07168 0.08468 0.27191 0.730 0.308 1577.398 0.01886
0.02387 0.03832 0.07177 0.08479 0.27298 0.786 0.315 1577.434 0.01889
0.02390 0.03837 0.07186 0.08490 0.27405 0.947 0.333 1577.471 0.01891
0.02393 0.03842 0.07195 0.08500 0.27512 1.108 0.350 1577.508 0.01893
0.02396 0.03847 0.07204 0.08511 0.27619 1.054 0.345 1577.544 0.01896
0.02399 0.03852 0.07213 0.08522 0.27726 1.483 0.385 1577.581 0.01898
0.02402 0.03857 0.07223 0.08533 0.27834 1.272 0.366 1577.618 0.01900
0.02405 0.03862 0.07232 0.08544 0.27941 0.898 0.327 1577.655 0.01903
0.02408 0.03866 0.07241 0.08554 0.28048 1.276 0.366 1577.691 0.01905
0.02411 0.03871 0.07250 0.08565 0.28155 0.952 0.335 1577.728 0.01908
0.02414 0.03876 0.07259 0.08576 0.28262 0.900 0.329 1577.765 0.01910
0.02417 0.03881 0.07268 0.08587 0.28369 0.793 0.317 1577.801 0.01912
0.02420 0.03886 0.07277 0.08598 0.28476 0.690 0.304 1577.838 0.01915
0.02423 0.03891 0.07286 0.08608 0.28584 0.962 0.335 1577.875 0.01917
0.02426 0.03896 0.07296 0.08619 0.28691 1.450 0.383 1577.912 0.01919
0.02429 0.03901 0.07305 0.08630 0.28798 1.019 0.342 1577.948 0.01922
0.02432 0.03905 0.07314 0.08641 0.28905 0.966 0.336 1577.985 0.01924
0.02435 0.03910 0.07323 0.08652 0.29012 1.182 0.358 1578.022 0.01927
0.02438 0.03915 0.07332 0.08662 0.29119 1.021 0.341 1578.058 0.01929
0.02441 0.03920 0.07341 0.08673 0.29227 0.803 0.317 1578.095 0.01931
0.02444 0.03925 0.07351 0.08684 0.29334 1.290 0.369 1578.132 0.01934
0.02447 0.03930 0.07360 0.08695 0.29441 1.292 0.370 1578.169 0.01936
0.02450 0.03935 0.07369 0.08706 0.29548 1.239 0.364 1578.205 0.01938
0.02454 0.03940 0.07378 0.08716 0.29655 1.244 0.365 1578.242 0.01941
0.02457 0.03945 0.07387 0.08727 0.29762 0.864 0.326 1578.279 0.01943
0.02460 0.03949 0.07396 0.08738 0.29870 1.162 0.398 1578.315 0.01946
0.02463 0.03954 0.07405 0.08749 0.29977 1.463 0.386 1578.352 0.01948
0.02466 0.03959 0.07415 0.08760 0.30084 0.758 0.313 1578.389 0.01950
0.02469 0.03964 0.07424 0.08770 0.30191 1.466 0.386 1578.426 0.01953
0.02472 0.03969 0.07433 0.08781 0.30299 0.977 0.339 1578.462 0.01955
0.02475 0.03974 0.07442 0.08792 0.30406 0.544 0.284 1578.499 0.01957
0.02478 0.03979 0.07451 0.08803 0.30513 1.145 0.354 1578.536 0.01960
0.02481 0.03984 0.07460 0.08814 0.30620 1.192 0.356 1578.572 0.01962
