x y z dist_scaled dist_frac flux_norm sig_norm wavelength redshift
-0.01518 0.01656 0.05263 0.05723 0.00000 0.452 0.062 1568.021 0.01281
-0.01521 0.01659 0.05273 0.05734 0.00106 0.478 0.064 1568.058 0.01283
-0.01524 0.01663 0.05283 0.05744 0.00212 0.416 0.060 1568.094 0.01285
-0.01527 0.01666 0.05293 0.05755 0.00318 0.527 0.063 1568.131 0.01288
-0.01529 0.01669 0.05303 0.05766 0.00425 0.590 0.062 1568.168 0.01290
-0.01532 0.01672 0.05313 0.05776 0.00531 0.653 0.062 1568.204 0.01292
-0.01535 0.01675 0.05322 0.05787 0.00637 0.598 0.063 1568.241 0.01295
-0.01538 0.01678 0.05332 0.05798 0.00743 0.679 0.067 1568.278 0.01297
-0.01541 0.01681 0.05342 0.05808 0.00849 0.889 0.072 1568.315 0.01300
-0.01544 0.01684 0.05352 0.05819 0.00956 0.906 0.073 1568.351 0.01302
-0.01546 0.01687 0.05362 0.05830 0.01062 0.882 0.072 1568.388 0.01304
-0.01549 0.01690 0.05372 0.05841 0.01168 0.848 0.071 1568.425 0.01307
-0.01552 0.01694 0.05382 0.05851 0.01274 0.877 0.072 1568.462 0.01309
-0.01555 0.01697 0.05391 0.05862 0.01380 1.033 0.078 1568.498 0.01311
-0.01558 0.01700 0.05401 0.05873 0.01487 1.034 0.078 1568.535 0.01314
-0.01561 0.01703 0.05411 0.05883 0.01593 0.915 0.074 1568.572 0.01316
-0.01563 0.01706 0.05421 0.05894 0.01699 0.827 0.070 1568.608 0.01319
-0.01566 0.01709 0.05431 0.05905 0.01805 0.982 0.076 1568.645 0.01321
-0.01569 0.01712 0.05441 0.05916 0.01911 0.899 0.073 1568.682 0.01323
-0.01572 0.01715 0.05450 0.05926 0.02018 0.888 0.073 1568.719 0.01326
-0.01575 0.01718 0.05460 0.05937 0.02124 1.015 0.078 1568.755 0.01328
-0.01578 0.01721 0.05470 0.05948 0.02230 1.032 0.078 1568.792 0.01330
-0.01581 0.01725 0.05480 0.05958 0.02336 0.861 0.071 1568.829 0.01333
-0.01583 0.01728 0.05490 0.05969 0.02443 0.888 0.073 1568.865 0.01335
-0.01586 0.01731 0.05500 0.05980 0.02549 0.972 0.076 1568.902 0.01338
-0.01589 0.01734 0.05510 0.05991 0.02655 0.816 0.070 1568.939 0.01340
-0.01592 0.01737 0.05519 0.06001 0.02761 0.832 0.070 1568.976 0.01342
-0.01595 0.01740 0.05529 0.06012 0.02868 0.757 0.067 1569.012 0.01345
-0.01598 0.01743 0.05539 0.06023 0.02974 0.848 0.071 1569.049 0.01347
-0.01600 0.01746 0.05549 0.06033 0.03080 0.842 0.071 1569.086 0.01349
-0.01603 0.01749 0.05559 0.06044 0.03186 0.768 0.068 1569.122 0.01352
-0.01606 0.01752 0.05569 0.06055 0.03293 0.525 0.063 1569.159 0.01354
-0.01609 0.01756 0.05579 0.06066 0.03399 0.398 0.056 1569.196 0.01356
-0.01612 0.01759 0.05588 0.06076 0.03505 0.231 0.048 1569.233 0.01359
-0.01615 0.01762 0.05598 0.06087 0.03611 0.100 0.036 1569.269 0.01361
-0.01617 0.01765 0.05608 0.06098 0.03718 0.102 0.036 1569.306 0.01364
-0.01620 0.01768 0.05618 0.06108 0.03824 0.051 0.030 1569.343 0.01366
-0.01623 0.01771 0.05628 0.06119 0.03930 0.166 0.043 1569.380 0.01368
-0.01626 0.01774 0.05638 0.06130 0.04037 0.141 0.040 1569.416 0.01371
-0.01629 0.01777 0.05648 0.06141 0.04143 0.205 0.046 1569.453 0.01373
-0.01632 0.01780 0.05657 0.06151 0.04249 0.184 0.044 1569.490 0.01375
-0.01635 0.01783 0.05667 0.06162 0.04355 0.267 0.051 1569.526 0.01378
-0.01637 0.01787 0.05677 0.06173 0.04462 0.322 0.055 1569.563 0.01380
-0.01640 0.01790 0.05687 0.06183 0.04568 0.334 0.056 1569.600 0.01383
-0.01643 0.01793 0.05697 0.06194 0.04674 0.312 0.055 1569.637 0.01385
-0.01646 0.01796 0.05707 0.06205 0.04781 0.352 0.057 1569.673 0.01387
-0.01649 0.01799 0.05717 0.06216 0.04887 0.551 0.065 1569.710 0.01390
-0.01652 0.01802 0.05726 0.06226 0.04993 0.694 0.065 1569.747 0.01392
-0.01654 0.01805 0.05736 0.06237 0.05100 0.795 0.069 1569.783 0.01394
-0.01657 0.01808 0.05746 0.06248 0.05206 0.940 0.075 1569.820 0.01397
-0.01660 0.01811 0.05756 0.06258 0.05312 0.923 0.075 1569.857 0.01399
-0.01663 0.01814 0.05766 0.06269 0.05419 0.779 0.069 1569.894 0.01402
-0.01666 0.01818 0.05776 0.06280 0.05525 0.882 0.073 1569.930 0.01404
-0.01669 0.01821 0.05786 0.06291 0.05631 0.956 0.076 1569.967 0.01406
-0.01672 0.01824 0.05795 0.06301 0.05738 1.018 0.078 1570.004 0.01409
-0.01674 0.01827 0.05805 0.06312 0.05844 0.932 0.075 1570.040 0.01411
-0.01677 0.01830 0.05815 0.06323 0.05951 0.982 0.077 1570.077 0.01413
-0.01680 0.01833 0.05825 0.06333 0.06057 1.013 0.078 1570.114 0.01416
-0.01683 0.01836 0.05835 0.06344 0.06163 1.020 0.079 1570.151 0.01418
-0.01686 0.01839 0.05845 0.06355 0.06270 1.020 0.079 1570.187 0.01421
-0.01689 0.01842 0.05855 0.06366 0.06376 0.879 0.073 1570.224 0.01423
-0.01691 0.01846 0.05864 0.06376 0.06482 0.904 0.074 1570.261 0.01425
-0.01694 0.01849 0.05874 0.06387 0.06589 0.929 0.075 1570.298 0.01428
-0.01697 0.01852 0.05884 0.06398 0.06695 1.022 0.079 1570.334 0.01430
-0.01700 0.01855 0.05894 0.06409 0.06802 1.022 0.079 1570.371 0.01432
-0.01703 0.01858 0.05904 0.06419 0.06908 0.887 0.073 1570.408 0.01435
-0.01706 0.01861 0.05914 0.06430 0.07014 1.017 0.079 1570.444 0.01437
-0.01708 0.01864 0.05924 0.06441 0.07121 0.887 0.073 1570.481 0.01439
-0.01711 0.01867 0.05933 0.06451 0.07227 1.055 0.080 1570.518 0.01442
-0.01714 0.01870 0.05943 0.06462 0.07334 1.043 0.080 1570.555 0.01444
-0.01717 0.01873 0.05953 0.06473 0.07440 0.957 0.076 1570.591 0.01447
-0.01720 0.01877 0.05963 0.06484 0.07546 0.914 0.075 1570.628 0.01449
-0.01723 0.01880 0.05973 0.06494 0.07653 0.965 0.077 1570.665 0.01451
-0.01726 0.01883 0.05983 0.06505 0.07759 1.045 0.080 1570.701 0.01454
-0.01728 0.01886 0.05993 0.06516 0.07866 1.089 0.082 1570.738 0.01456
-0.01731 0.01889 0.06003 0.06527 0.07972 1.041 0.080 1570.775 0.01458
-0.01734 0.01892 0.06012 0.06537 0.08079 0.998 0.078 1570.812 0.01461
-0.01737 0.01895 0.06022 0.06548 0.08185 0.974 0.077 1570.848 0.01463
-0.01740 0.01898 0.06032 0.06559 0.08291 0.999 0.078 1570.885 0.01466
-0.01743 0.01901 0.06042 0.06569 0.08398 1.012 0.079 1570.922 0.01468
-0.01745 0.01905 0.06052 0.06580 0.08504 0.975 0.077 1570.958 0.01470
-0.01748 0.01908 0.06062 0.06591 0.08611 1.019 0.079 1570.995 0.01473
-0.01751 0.01911 0.06072 0.06602 0.08717 1.032 0.080 1571.032 0.01475
-0.01754 0.01914 0.06082 0.06612 0.08824 0.940 0.076 1571.069 0.01477
-0.01757 0.01917 0.06091 0.06623 0.08930 0.873 0.073 1571.105 0.01480
-0.01760 0.01920 0.06101 0.06634 0.09037 0.979 0.078 1571.142 0.01482
-0.01763 0.01923 0.06111 0.06645 0.09143 1.005 0.079 1571.179 0.01485
-0.01765 0.01926 0.06121 0.06655 0.09250 0.849 0.072 1571.216 0.01487
-0.01768 0.01929 0.06131 0.06666 0.09356 0.869 0.073 1571.252 0.01489
-0.01771 0.01932 0.06141 0.06677 0.09463 1.012 0.079 1571.289 0.01492
-0.01774 0.01936 0.06151 0.06688 0.09569 1.093 0.082 1571.326 0.01494
-0.01777 0.01939 0.06161 0.06698 0.09676 0.888 0.074 1571.362 0.01496
-0.01780 0.01942 0.06170 0.06709 0.09782 0.950 0.077 1571.399 0.01499
-0.01783 0.01945 0.06180 0.06720 0.09889 1.101 0.082 1571.436 0.01501
-0.01785 0.01948 0.06190 0.06731 0.09995 1.020 0.079 1571.473 0.01504
-0.01788 0.01951 0.06200 0.06741 0.10102 1.021 0.079 1571.509 0.01506
-0.01791 0.01954 0.06210 0.06752 0.10208 1.078 0.082 1571.546 0.01508
-0.01794 0.01957 0.06220 0.06763 0.10315 0.985 0.078 1571.583 0.01511
-0.01797 0.01960 0.06230 0.06773 0.10421 0.980 0.078 1571.619 0.01513
-0.01800 0.01964 0.06240 0.06784 0.10528 0.879 0.074 1571.656 0.01515
-0.01802 0.01967 0.06249 0.06795 0.10634 0.937 0.076 1571.693 0.01518
-0.01805 0.01970 0.06259 0.06806 0.10741 1.013 0.079 1571.730 0.01520
-0.01808 0.01973 0.06269 0.06816 0.10847 0.888 0.074 1571.766 0.01523
-0.01811 0.01976 0.06279 0.06827 0.10954 0.971 0.078 1571.803 0.01525
-0.01814 0.01979 0.06289 0.06838 0.11060 1.212 0.087 1571.840 0.01527
-0.01817 0.01982 0.06299 0.06849 0.11167 0.972 0.078 1571.877 0.01530
-0.01820 0.01985 0.06309 0.06859 0.11273 0.916 0.075 1571.913 0.01532
-0.01822 0.01988 0.06319 0.06870 0.11380 0.999 0.079 1571.950 0.01534
-0.01825 0.01992 0.06328 0.06881 0.11486 1.044 0.081 1571.987 0.01537
-0.01828 0.01995 0.06338 0.06892 0.11593 1.114 0.083 1572.023 0.01539
-0.01831 0.01998 0.06348 0.06902 0.11700 1.228 0.087 1572.060 0.01541
-0.01834 0.02001 0.06358 0.06913 0.11806 1.072 0.082 1572.097 0.01544
-0.01837 0.02004 0.06368 0.06924 0.11913 1.064 0.081 1572.134 0.01546
-0.01839 0.02007 0.06378 0.06935 0.12019 1.021 0.080 1572.170 0.01549
-0.01842 0.02010 0.06388 0.06945 0.12126 0.773 0.069 1572.207 0.01551
-0.01845 0.02013 0.06398 0.06956 0.12232 1.066 0.082 1572.244 0.01553
-0.01848 0.02016 0.06407 0.06967 0.12339 0.988 0.079 1572.280 0.01556
-0.01851 0.02020 0.06417 0.06978 0.12446 1.096 0.083 1572.317 0.01558
-0.01854 0.02023 0.06427 0.06988 0.12552 0.974 0.078 1572.354 0.01560
-0.01857 0.02026 0.06437 0.06999 0.12659 1.063 0.082 1572.391 0.01563
-0.01859 0.02029 0.06447 0.07010 0.12765 1.097 0.083 1572.427 0.01565
-0.01862 0.02032 0.06457 0.07021 0.12872 0.818 0.072 1572.464 0.01568
-0.01865 0.02035 0.06467 0.07031 0.12979 0.925 0.076 1572.501 0.01570
-0.01868 0.02038 0.06477 0.07042 0.13085 0.795 0.071 1572.537 0.01572
-0.01871 0.02041 0.06487 0.07053 0.13192 0.831 0.072 1572.574 0.01575
-0.01874 0.02044 0.06496 0.07064 0.13299 0.927 0.076 1572.611 0.01577
-0.01877 0.02048 0.06506 0.07074 0.13405 1.089 0.083 1572.648 0.01579
-0.01879 0.02051 0.06516 0.07085 0.13512 0.960 0.078 1572.684 0.01582
-0.01882 0.02054 0.06526 0.07096 0.13618 0.889 0.075 1572.721 0.01584
-0.01885 0.02057 0.06536 0.07107 0.13725 0.992 0.079 1572.758 0.01587
-0.01888 0.02060 0.06546 0.07117 0.13832 1.004 0.080 1572.795 0.01589
-0.01891 0.02063 0.06556 0.07128 0.13938 0.942 0.077 1572.831 0.01591
-0.01894 0.02066 0.06566 0.07139 0.14045 1.064 0.082 1572.868 0.01594
-0.01897 0.02069 0.06576 0.07150 0.14152 0.996 0.079 1572.905 0.01596
-0.01899 0.02072 0.06585 0.07160 0.14258 0.730 0.072 1572.941 0.01598
-0.01902 0.02076 0.06595 0.07171 0.14365 0.905 0.076 1572.978 0.01601
-0.01905 0.02079 0.06605 0.07182 0.14472 0.873 0.074 1573.015 0.01603
-0.01908 0.02082 0.06615 0.07193 0.14578 0.886 0.075 1573.052 0.01606
-0.01911 0.02085 0.06625 0.07203 0.14685 0.811 0.072 1573.088 0.01608
-0.01914 0.02088 0.06635 0.07214 0.14792 0.836 0.073 1573.125 0.01610
-0.01916 0.02091 0.06645 0.07225 0.14898 0.702 0.067 1573.162 0.01613
-0.01919 0.02094 0.06655 0.07236 0.15005 0.517 0.065 1573.198 0.01615
-0.01922 0.02097 0.06665 0.07246 0.15112 0.506 0.064 1573.235 0.01617
-0.01925 0.02100 0.06674 0.07257 0.15218 0.329 0.058 1573.272 0.01620
-0.01928 0.02104 0.06684 0.07268 0.15325 0.310 0.056 1573.309 0.01622
-0.01931 0.02107 0.06694 0.07279 0.15432 0.401 0.062 1573.345 0.01624
-0.01934 0.02110 0.06704 0.07289 0.15538 0.407 0.063 1573.382 0.01627
-0.01936 0.02113 0.06714 0.07300 0.15645 0.453 0.065 1573.419 0.01629
-0.01939 0.02116 0.06724 0.07311 0.15752 0.571 0.068 1573.455 0.01632
-0.01942 0.02119 0.06734 0.07322 0.15859 0.674 0.065 1573.492 0.01634
-0.01945 0.02122 0.06744 0.07332 0.15965 0.589 0.065 1573.529 0.01636
-0.01948 0.02125 0.06754 0.07343 0.16072 0.758 0.069 1573.566 0.01639
-0.01951 0.02128 0.06763 0.07354 0.16179 0.681 0.066 1573.602 0.01641
-0.01954 0.02132 0.06773 0.07365 0.16285 0.733 0.068 1573.639 0.01643
-0.01956 0.02135 0.06783 0.07375 0.16392 0.727 0.072 1573.676 0.01646
-0.01959 0.02138 0.06793 0.07386 0.16499 0.864 0.074 1573.713 0.01648
-0.01962 0.02141 0.06803 0.07397 0.16606 0.864 0.074 1573.749 0.01651
-0.01965 0.02144 0.06813 0.07408 0.16712 1.041 0.082 1573.786 0.01653
-0.01968 0.02147 0.06823 0.07418 0.16819 0.995 0.080 1573.823 0.01655
-0.01971 0.02150 0.06833 0.07429 0.16926 0.865 0.074 1573.859 0.01658
-0.01974 0.02153 0.06843 0.07440 0.17033 0.800 0.072 1573.896 0.01660
-0.01976 0.02156 0.06853 0.07451 0.17139 0.761 0.070 1573.933 0.01662
-0.01979 0.02160 0.06862 0.07462 0.17246 0.833 0.073 1573.970 0.01665
-0.01982 0.02163 0.06872 0.07472 0.17353 0.703 0.067 1574.006 0.01667
-0.01985 0.02166 0.06882 0.07483 0.17460 0.683 0.066 1574.043 0.01670
-0.01988 0.02169 0.06892 0.07494 0.17566 0.683 0.066 1574.080 0.01672
-0.01991 0.02172 0.06902 0.07505 0.17673 0.828 0.073 1574.116 0.01674
-0.01994 0.02175 0.06912 0.07515 0.17780 0.940 0.078 1574.153 0.01677
-0.01996 0.02178 0.06922 0.07526 0.17887 0.966 0.079 1574.190 0.01679
-0.01999 0.02181 0.06932 0.07537 0.17993 0.855 0.074 1574.227 0.01681
-0.02002 0.02184 0.06942 0.07548 0.18100 1.019 0.081 1574.263 0.01684
-0.02005 0.02188 0.06952 0.07558 0.18207 1.098 0.084 1574.300 0.01686
-0.02008 0.02191 0.06961 0.07569 0.18314 0.915 0.077 1574.337 0.01689
-0.02011 0.02194 0.06971 0.07580 0.18421 0.935 0.078 1574.374 0.01691
-0.02014 0.02197 0.06981 0.07591 0.18527 1.067 0.083 1574.410 0.01693
-0.02016 0.02200 0.06991 0.07601 0.18634 1.133 0.086 1574.447 0.01696
-0.02019 0.02203 0.07001 0.07612 0.18741 0.956 0.079 1574.484 0.01698
-0.02022 0.02206 0.07011 0.07623 0.18848 1.035 0.082 1574.520 0.01700
-0.02025 0.02209 0.07021 0.07634 0.18955 0.957 0.079 1574.557 0.01703
-0.02028 0.02213 0.07031 0.07645 0.19062 1.062 0.083 1574.594 0.01705
-0.02031 0.02216 0.07041 0.07655 0.19168 1.102 0.084 1574.631 0.01708
-0.02034 0.02219 0.07051 0.07666 0.19275 1.069 0.083 1574.667 0.01710
-0.02036 0.02222 0.07060 0.07677 0.19382 1.057 0.083 1574.704 0.01712
-0.02039 0.02225 0.07070 0.07688 0.19489 1.189 0.088 1574.741 0.01715
-0.02042 0.02228 0.07080 0.07698 0.19596 1.044 0.082 1574.777 0.01717
-0.02045 0.02231 0.07090 0.07709 0.19703 1.051 0.083 1574.814 0.01719
-0.02048 0.02234 0.07100 0.07720 0.19809 1.025 0.082 1574.851 0.01722
-0.02051 0.02237 0.07110 0.07731 0.19916 1.046 0.082 1574.888 0.01724
-0.02054 0.02241 0.07120 0.07741 0.20023 1.026 0.082 1574.924 0.01726
-0.02056 0.02244 0.07130 0.07752 0.20130 0.948 0.079 1574.961 0.01729
-0.02059 0.02247 0.07140 0.07763 0.20237 0.975 0.080 1574.998 0.01731
-0.02062 0.02250 0.07150 0.07774 0.20344 1.022 0.082 1575.034 0.01734
-0.02065 0.02253 0.07160 0.07785 0.20451 1.056 0.083 1575.071 0.01736
-0.02068 0.02256 0.07169 0.07795 0.20557 1.018 0.081 1575.108 0.01738
-0.02071 0.02259 0.07179 0.07806 0.20664 1.107 0.085 1575.145 0.01741
-0.02074 0.02262 0.07189 0.07817 0.20771 1.069 0.084 1575.181 0.01743
-0.02076 0.02266 0.07199 0.07828 0.20878 1.102 0.085 1575.218 0.01745
-0.02079 0.02269 0.07209 0.07838 0.20985 1.035 0.082 1575.255 0.01748
-0.02082 0.02272 0.07219 0.07849 0.21092 1.046 0.083 1575.292 0.01750
-0.02085 0.02275 0.07229 0.07860 0.21199 0.964 0.079 1575.328 0.01753
-0.02088 0.02278 0.07239 0.07871 0.21306 1.013 0.081 1575.365 0.01755
-0.02091 0.02281 0.07249 0.07882 0.21413 1.077 0.084 1575.402 0.01757
-0.02094 0.02284 0.07259 0.07892 0.21519 1.228 0.090 1575.438 0.01760
-0.02096 0.02287 0.07269 0.07903 0.21626 0.950 0.079 1575.475 0.01762
-0.02099 0.02291 0.07278 0.07914 0.21733 0.940 0.079 1575.512 0.01764
-0.02102 0.02294 0.07288 0.07925 0.21840 1.092 0.085 1575.549 0.01767
-0.02105 0.02297 0.07298 0.07935 0.21947 1.295 0.092 1575.585 0.01769
-0.02108 0.02300 0.07308 0.07946 0.22054 1.029 0.082 1575.622 0.01772
-0.02111 0.02303 0.07318 0.07957 0.22161 1.073 0.084 1575.659 0.01774
-0.02114 0.02306 0.07328 0.07968 0.22268 1.058 0.083 1575.695 0.01776
-0.02116 0.02309 0.07338 0.07979 0.22375 0.891 0.077 1575.732 0.01779
-0.02119 0.02312 0.07348 0.07989 0.22482 0.983 0.080 1575.769 0.01781
-0.02122 0.02315 0.07358 0.08000 0.22589 0.962 0.080 1575.806 0.01783
-0.02125 0.02319 0.07368 0.08011 0.22696 0.927 0.078 1575.842 0.01786
-0.02128 0.02322 0.07378 0.08022 0.22803 0.804 0.076 1575.879 0.01788
-0.02131 0.02325 0.07388 0.08032 0.22910 0.730 0.069 1575.916 0.01791
-0.02134 0.02328 0.07397 0.08043 0.23017 0.604 0.071 1575.952 0.01793
-0.02136 0.02331 0.07407 0.08054 0.23123 0.417 0.065 1575.989 0.01795
-0.02139 0.02334 0.07417 0.08065 0.23230 0.334 0.059 1576.026 0.01798
-0.02142 0.02337 0.07427 0.08076 0.23337 0.197 0.049 1576.063 0.01800
-0.02145 0.02340 0.07437 0.08086 0.23444 0.196 0.049 1576.099 0.01802
-0.02148 0.02344 0.07447 0.08097 0.23551 0.129 0.042 1576.136 0.01805
-0.02151 0.02347 0.07457 0.08108 0.23658 0.088 0.038 1576.173 0.01807
-0.02154 0.02350 0.07467 0.08119 0.23765 0.088 0.038 1576.210 0.01809
-0.02156 0.02353 0.07477 0.08130 0.23872 0.040 0.031 1576.246 0.01812
-0.02159 0.02356 0.07487 0.08140 0.23979 0.073 0.036 1576.283 0.01814
-0.02162 0.02359 0.07497 0.08151 0.24086 0.120 0.042 1576.320 0.01817
-0.02165 0.02362 0.07507 0.08162 0.24193 0.196 0.049 1576.356 0.01819
-0.02168 0.02365 0.07517 0.08173 0.24300 0.164 0.046 1576.393 0.01821
-0.02171 0.02369 0.07526 0.08183 0.24407 0.226 0.051 1576.430 0.01824
-0.02174 0.02372 0.07536 0.08194 0.24514 0.294 0.057 1576.467 0.01826
-0.02176 0.02375 0.07546 0.08205 0.24621 0.197 0.049 1576.503 0.01828
-0.02179 0.02378 0.07556 0.08216 0.24728 0.252 0.054 1576.540 0.01831
-0.02182 0.02381 0.07566 0.08227 0.24835 0.349 0.061 1576.577 0.01833
-0.02185 0.02384 0.07576 0.08237 0.24942 0.261 0.054 1576.613 0.01836
-0.02188 0.02387 0.07586 0.08248 0.25049 0.187 0.048 1576.650 0.01838
-0.02191 0.02390 0.07596 0.08259 0.25156 0.077 0.035 1576.687 0.01840
-0.02194 0.02394 0.07606 0.08270 0.25264 0.069 0.035 1576.724 0.01843
-0.02197 0.02397 0.07616 0.08281 0.25371 -0.009 0.023 1576.760 0.01845
-0.02199 0.02400 0.07626 0.08291 0.25478 0.031 0.030 1576.797 0.01847
-0.02202 0.02403 0.07636 0.08302 0.25585 0.044 0.030 1576.834 0.01850
-0.02205 0.02406 0.07646 0.08313 0.25692 0.022 0.026 1576.871 0.01852
-0.02208 0.02409 0.07655 0.08324 0.25799 0.049 0.031 1576.907 0.01855
-0.02211 0.02412 0.07665 0.08335 0.25906 0.015 0.025 1576.944 0.01857
-0.02214 0.02415 0.07675 0.08345 0.26013 0.014 0.026 1576.981 0.01859
-0.02217 0.02418 0.07685 0.08356 0.26120 0.062 0.032 1577.017 0.01862
-0.02219 0.02422 0.07695 0.08367 0.26227 0.055 0.031 1577.054 0.01864
-0.02222 0.02425 0.07705 0.08378 0.26334 0.150 0.044 1577.091 0.01866
-0.02225 0.02428 0.07715 0.08389 0.26441 0.211 0.050 1577.128 0.01869
-0.02228 0.02431 0.07725 0.08399 0.26548 0.388 0.064 1577.164 0.01871
-0.02231 0.02434 0.07735 0.08410 0.26655 0.622 0.069 1577.201 0.01874
-0.02234 0.02437 0.07745 0.08421 0.26762 0.739 0.071 1577.238 0.01876
-0.02237 0.02440 0.07755 0.08432 0.26870 0.896 0.078 1577.274 0.01878
-0.02239 0.02443 0.07765 0.08443 0.26977 0.972 0.081 1577.311 0.01881
-0.02242 0.02447 0.07775 0.08453 0.27084 1.055 0.084 1577.348 0.01883
-0.02245 0.02450 0.07785 0.08464 0.27191 0.925 0.079 1577.385 0.01885
-0.02248 0.02453 0.07794 0.08475 0.27298 0.953 0.080 1577.421 0.01888
-0.02251 0.02456 0.07804 0.08486 0.27405 1.311 0.094 1577.458 0.01890
-0.02254 0.02459 0.07814 0.08496 0.27512 1.051 0.084 1577.495 0.01893
-0.02257 0.02462 0.07824 0.08507 0.27619 1.182 0.089 1577.531 0.01895
-0.02260 0.02465 0.07834 0.08518 0.27726 0.921 0.079 1577.568 0.01897
-0.02262 0.02468 0.07844 0.08529 0.27834 1.018 0.083 1577.605 0.01900
-0.02265 0.02472 0.07854 0.08540 0.27941 0.914 0.079 1577.642 0.01902
-0.02268 0.02475 0.07864 0.08550 0.28048 0.880 0.077 1577.678 0.01904
-0.02271 0.02478 0.07874 0.08561 0.28155 0.916 0.079 1577.715 0.01907
-0.02274 0.02481 0.07884 0.08572 0.28262 0.979 0.081 1577.752 0.01909
-0.02277 0.02484 0.07894 0.08583 0.28369 1.076 0.085 1577.789 0.01911
-0.02280 0.02487 0.07904 0.08594 0.28476 1.146 0.088 1577.825 0.01914
-0.02282 0.02490 0.07914 0.08605 0.28583 1.024 0.083 1577.862 0.01916
-0.02285 0.02494 0.07924 0.08615 0.28691 0.969 0.081 1577.899 0.01919
-0.02288 0.02497 0.07934 0.08626 0.28798 1.089 0.086 1577.935 0.01921
-0.02291 0.02500 0.07943 0.08637 0.28905 0.971 0.081 1577.972 0.01923
-0.02294 0.02503 0.07953 0.08648 0.29012 1.117 0.087 1578.009 0.01926
-0.02297 0.02506 0.07963 0.08659 0.29119 1.155 0.091 1578.046 0.01928
-0.02300 0.02509 0.07973 0.08669 0.29226 0.952 0.087 1578.082 0.01930
-0.02303 0.02512 0.07983 0.08680 0.29334 1.242 0.100 1578.119 0.01933
-0.02305 0.02515 0.07993 0.08691 0.29441 0.896 0.085 1578.156 0.01935
-0.02308 0.02519 0.08003 0.08702 0.29548 1.046 0.092 1578.192 0.01938
-0.02311 0.02522 0.08013 0.08713 0.29655 1.040 0.091 1578.229 0.01940
-0.02314 0.02525 0.08023 0.08723 0.29762 1.055 0.092 1578.266 0.01942
-0.02317 0.02528 0.08033 0.08734 0.29870 1.029 0.091 1578.303 0.01945
-0.02320 0.02531 0.08043 0.08745 0.29977 1.086 0.093 1578.339 0.01947
-0.02323 0.02534 0.08053 0.08756 0.30084 0.858 0.088 1578.376 0.01949
-0.02325 0.02537 0.08063 0.08767 0.30191 1.135 0.095 1578.413 0.01952
