x y z dist_scaled dist_frac flux_norm sig_norm wavelength redshift
0.01748 0.00959 0.05365 0.05724 0.00000 0.966 0.082 1568.024 0.01281
0.01751 0.00960 0.05375 0.05734 0.00106 0.737 0.076 1568.060 0.01283
0.01755 0.00962 0.05385 0.05745 0.00212 0.967 0.082 1568.097 0.01285
0.01758 0.00964 0.05395 0.05756 0.00318 1.096 0.088 1568.134 0.01288
0.01761 0.00966 0.05405 0.05766 0.00425 1.017 0.085 1568.170 0.01290
0.01764 0.00967 0.05415 0.05777 0.00531 1.068 0.087 1568.207 0.01293
0.01768 0.00969 0.05425 0.05788 0.00637 1.061 0.086 1568.244 0.01295
0.01771 0.00971 0.05435 0.05799 0.00743 1.154 0.090 1568.281 0.01297
0.01774 0.00973 0.05445 0.05809 0.00849 1.083 0.087 1568.317 0.01300
0.01778 0.00975 0.05455 0.05820 0.00956 0.883 0.079 1568.354 0.01302
0.01781 0.00976 0.05466 0.05831 0.01062 0.890 0.079 1568.391 0.01304
0.01784 0.00978 0.05476 0.05841 0.01168 1.027 0.085 1568.427 0.01307
0.01787 0.00980 0.05486 0.05852 0.01274 0.884 0.079 1568.464 0.01309
0.01791 0.00982 0.05496 0.05863 0.01380 1.027 0.085 1568.501 0.01312
0.01794 0.00984 0.05506 0.05873 0.01487 0.819 0.076 1568.537 0.01314
0.01797 0.00985 0.05516 0.05884 0.01593 0.948 0.082 1568.574 0.01316
0.01800 0.00987 0.05526 0.05895 0.01699 0.978 0.083 1568.611 0.01319
0.01804 0.00989 0.05536 0.05906 0.01805 0.949 0.082 1568.648 0.01321
0.01807 0.00991 0.05546 0.05916 0.01911 1.129 0.089 1568.684 0.01323
0.01810 0.00993 0.05556 0.05927 0.02018 1.266 0.095 1568.721 0.01326
0.01814 0.00994 0.05566 0.05938 0.02124 1.022 0.085 1568.758 0.01328
0.01817 0.00996 0.05576 0.05948 0.02230 0.929 0.081 1568.794 0.01331
0.01820 0.00998 0.05586 0.05959 0.02336 0.915 0.080 1568.831 0.01333
0.01823 0.01000 0.05596 0.05970 0.02443 1.031 0.085 1568.868 0.01335
0.01827 0.01002 0.05606 0.05981 0.02549 0.930 0.081 1568.905 0.01338
0.01830 0.01003 0.05616 0.05991 0.02655 0.844 0.077 1568.941 0.01340
0.01833 0.01005 0.05626 0.06002 0.02761 1.000 0.084 1568.978 0.01342
0.01836 0.01007 0.05636 0.06013 0.02868 0.875 0.079 1569.015 0.01345
0.01840 0.01009 0.05646 0.06023 0.02974 0.958 0.082 1569.051 0.01347
0.01843 0.01011 0.05656 0.06034 0.03080 1.161 0.091 1569.088 0.01350
0.01846 0.01012 0.05666 0.06045 0.03186 1.110 0.089 1569.125 0.01352
0.01850 0.01014 0.05676 0.06056 0.03293 0.951 0.082 1569.162 0.01354
0.01853 0.01016 0.05686 0.06066 0.03399 1.024 0.085 1569.198 0.01357
0.01856 0.01018 0.05696 0.06077 0.03505 1.080 0.088 1569.235 0.01359
0.01859 0.01019 0.05706 0.06088 0.03611 1.022 0.085 1569.272 0.01361
0.01863 0.01021 0.05716 0.06098 0.03718 0.995 0.084 1569.308 0.01364
0.01866 0.01023 0.05726 0.06109 0.03824 0.997 0.084 1569.345 0.01366
0.01869 0.01025 0.05737 0.06120 0.03930 1.075 0.087 1569.382 0.01368
0.01872 0.01027 0.05747 0.06131 0.04037 1.023 0.085 1569.419 0.01371
0.01876 0.01028 0.05757 0.06141 0.04143 0.979 0.083 1569.455 0.01373
0.01879 0.01030 0.05767 0.06152 0.04249 0.875 0.079 1569.492 0.01376
0.01882 0.01032 0.05777 0.06163 0.04355 0.978 0.083 1569.529 0.01378
0.01886 0.01034 0.05787 0.06173 0.04462 1.035 0.086 1569.565 0.01380
0.01889 0.01036 0.05797 0.06184 0.04568 1.063 0.087 1569.602 0.01383
0.01892 0.01037 0.05807 0.06195 0.04674 1.075 0.088 1569.639 0.01385
0.01895 0.01039 0.05817 0.06206 0.04781 0.966 0.083 1569.676 0.01387
0.01899 0.01041 0.05827 0.06216 0.04887 1.010 0.085 1569.712 0.01390
0.01902 0.01043 0.05837 0.06227 0.04993 0.830 0.077 1569.749 0.01392
0.01905 0.01045 0.05847 0.06238 0.05100 0.957 0.083 1569.786 0.01395
0.01908 0.01046 0.05857 0.06248 0.05206 1.117 0.089 1569.822 0.01397
0.01912 0.01048 0.05867 0.06259 0.05312 1.013 0.085 1569.859 0.01399
0.01915 0.01050 0.05877 0.06270 0.05419 1.010 0.085 1569.896 0.01402
0.01918 0.01052 0.05887 0.06281 0.05525 1.060 0.087 1569.933 0.01404
0.01922 0.01054 0.05897 0.06291 0.05631 0.957 0.083 1569.969 0.01406
0.01925 0.01055 0.05907 0.06302 0.05738 1.023 0.086 1570.006 0.01409
0.01928 0.01057 0.05917 0.06313 0.05844 0.875 0.079 1570.043 0.01411
0.01931 0.01059 0.05927 0.06323 0.05951 0.869 0.079 1570.079 0.01414
0.01935 0.01061 0.05937 0.06334 0.06057 1.039 0.086 1570.116 0.01416
0.01938 0.01063 0.05948 0.06345 0.06163 0.969 0.083 1570.153 0.01418
0.01941 0.01064 0.05958 0.06356 0.06270 1.090 0.088 1570.190 0.01421
0.01944 0.01066 0.05968 0.06366 0.06376 0.856 0.078 1570.226 0.01423
0.01948 0.01068 0.05978 0.06377 0.06482 0.963 0.083 1570.263 0.01425
0.01951 0.01070 0.05988 0.06388 0.06589 0.868 0.079 1570.300 0.01428
0.01954 0.01072 0.05998 0.06398 0.06695 0.968 0.083 1570.336 0.01430
0.01958 0.01073 0.06008 0.06409 0.06802 0.893 0.080 1570.373 0.01433
0.01961 0.01075 0.06018 0.06420 0.06908 0.980 0.084 1570.410 0.01435
0.01964 0.01077 0.06028 0.06431 0.07014 0.780 0.079 1570.447 0.01437
0.01967 0.01079 0.06038 0.06441 0.07121 0.919 0.081 1570.483 0.01440
0.01971 0.01081 0.06048 0.06452 0.07227 0.889 0.080 1570.520 0.01442
0.01974 0.01082 0.06058 0.06463 0.07334 1.036 0.086 1570.557 0.01444
0.01977 0.01084 0.06068 0.06474 0.07440 0.876 0.079 1570.593 0.01447
0.01980 0.01086 0.06078 0.06484 0.07546 0.937 0.082 1570.630 0.01449
0.01984 0.01088 0.06088 0.06495 0.07653 0.930 0.082 1570.667 0.01451
0.01987 0.01090 0.06098 0.06506 0.07759 0.907 0.081 1570.704 0.01454
0.01990 0.01091 0.06108 0.06516 0.07866 0.993 0.084 1570.740 0.01456
0.01994 0.01093 0.06118 0.06527 0.07972 1.022 0.086 1570.777 0.01459
0.01997 0.01095 0.06128 0.06538 0.08079 0.962 0.083 1570.814 0.01461
0.02000 0.01097 0.06139 0.06549 0.08185 1.089 0.088 1570.850 0.01463
0.02003 0.01098 0.06149 0.06559 0.08291 1.105 0.089 1570.887 0.01466
0.02007 0.01100 0.06159 0.06570 0.08398 0.938 0.082 1570.924 0.01468
0.02010 0.01102 0.06169 0.06581 0.08504 1.004 0.085 1570.961 0.01470
0.02013 0.01104 0.06179 0.06592 0.08611 0.868 0.079 1570.997 0.01473
0.02017 0.01106 0.06189 0.06602 0.08717 0.957 0.083 1571.034 0.01475
0.02020 0.01107 0.06199 0.06613 0.08824 0.868 0.083 1571.071 0.01478
0.02023 0.01109 0.06209 0.06624 0.08930 0.809 0.076 1571.107 0.01480
0.02026 0.01111 0.06219 0.06634 0.09037 0.830 0.077 1571.144 0.01482
0.02030 0.01113 0.06229 0.06645 0.09143 1.076 0.088 1571.181 0.01485
0.02033 0.01115 0.06239 0.06656 0.09250 0.996 0.085 1571.218 0.01487
0.02036 0.01116 0.06249 0.06667 0.09356 0.936 0.082 1571.254 0.01489
0.02039 0.01118 0.06259 0.06677 0.09463 0.953 0.083 1571.291 0.01492
0.02043 0.01120 0.06269 0.06688 0.09569 0.975 0.084 1571.328 0.01494
0.02046 0.01122 0.06279 0.06699 0.09676 0.850 0.078 1571.364 0.01497
0.02049 0.01124 0.06289 0.06710 0.09782 0.990 0.085 1571.401 0.01499
0.02053 0.01125 0.06299 0.06720 0.09889 0.844 0.078 1571.438 0.01501
0.02056 0.01127 0.06310 0.06731 0.09995 0.962 0.083 1571.475 0.01504
0.02059 0.01129 0.06320 0.06742 0.10102 0.874 0.079 1571.511 0.01506
0.02062 0.01131 0.06330 0.06753 0.10208 0.882 0.080 1571.548 0.01508
0.02066 0.01133 0.06340 0.06763 0.10315 0.904 0.085 1571.585 0.01511
0.02069 0.01134 0.06350 0.06774 0.10421 1.140 0.091 1571.621 0.01513
0.02072 0.01136 0.06360 0.06785 0.10528 0.846 0.078 1571.658 0.01516
0.02076 0.01138 0.06370 0.06796 0.10634 0.964 0.084 1571.695 0.01518
0.02079 0.01140 0.06380 0.06806 0.10741 0.846 0.078 1571.732 0.01520
0.02082 0.01142 0.06390 0.06817 0.10847 0.780 0.080 1571.768 0.01523
0.02085 0.01143 0.06400 0.06828 0.10954 0.898 0.081 1571.805 0.01525
0.02089 0.01145 0.06410 0.06838 0.11060 1.030 0.086 1571.842 0.01527
0.02092 0.01147 0.06420 0.06849 0.11167 0.883 0.080 1571.878 0.01530
0.02095 0.01149 0.06430 0.06860 0.11273 0.802 0.081 1571.915 0.01532
0.02098 0.01151 0.06440 0.06871 0.11380 1.053 0.087 1571.952 0.01534
0.02102 0.01152 0.06450 0.06881 0.11487 0.965 0.084 1571.989 0.01537
0.02105 0.01154 0.06461 0.06892 0.11593 1.059 0.088 1572.025 0.01539
0.02108 0.01156 0.06471 0.06903 0.11700 1.017 0.086 1572.062 0.01542
0.02112 0.01158 0.06481 0.06914 0.11806 0.887 0.080 1572.099 0.01544
0.02115 0.01160 0.06491 0.06924 0.11913 0.946 0.083 1572.135 0.01546
0.02118 0.01161 0.06501 0.06935 0.12019 0.933 0.082 1572.172 0.01549
0.02121 0.01163 0.06511 0.06946 0.12126 0.834 0.078 1572.209 0.01551
0.02125 0.01165 0.06521 0.06957 0.12233 0.911 0.081 1572.246 0.01553
0.02128 0.01167 0.06531 0.06967 0.12339 0.769 0.075 1572.282 0.01556
0.02131 0.01169 0.06541 0.06978 0.12446 0.927 0.082 1572.319 0.01558
0.02135 0.01170 0.06551 0.06989 0.12552 0.877 0.080 1572.356 0.01561
0.02138 0.01172 0.06561 0.07000 0.12659 1.188 0.093 1572.392 0.01563
0.02141 0.01174 0.06571 0.07010 0.12766 0.999 0.085 1572.429 0.01565
0.02144 0.01176 0.06581 0.07021 0.12872 0.852 0.079 1572.466 0.01568
0.02148 0.01178 0.06591 0.07032 0.12979 1.137 0.091 1572.503 0.01570
0.02151 0.01179 0.06602 0.07043 0.13085 1.071 0.088 1572.539 0.01572
0.02154 0.01181 0.06612 0.07053 0.13192 1.066 0.088 1572.576 0.01575
0.02158 0.01183 0.06622 0.07064 0.13299 0.837 0.078 1572.613 0.01577
0.02161 0.01185 0.06632 0.07075 0.13405 0.934 0.082 1572.649 0.01580
0.02164 0.01187 0.06642 0.07086 0.13512 1.001 0.085 1572.686 0.01582
0.02167 0.01188 0.06652 0.07096 0.13618 1.105 0.090 1572.723 0.01584
0.02171 0.01190 0.06662 0.07107 0.13725 0.934 0.083 1572.760 0.01587
0.02174 0.01192 0.06672 0.07118 0.13832 0.908 0.081 1572.796 0.01589
0.02177 0.01194 0.06682 0.07129 0.13938 1.054 0.088 1572.833 0.01591
0.02181 0.01196 0.06692 0.07139 0.14045 1.230 0.095 1572.870 0.01594
0.02184 0.01197 0.06702 0.07150 0.14152 1.068 0.088 1572.906 0.01596
0.02187 0.01199 0.06712 0.07161 0.14258 1.054 0.088 1572.943 0.01599
0.02190 0.01201 0.06722 0.07172 0.14365 1.178 0.093 1572.980 0.01601
0.02194 0.01203 0.06733 0.07182 0.14472 0.816 0.077 1573.017 0.01603
0.02197 0.01205 0.06743 0.07193 0.14578 1.101 0.090 1573.053 0.01606
0.02200 0.01206 0.06753 0.07204 0.14685 1.069 0.088 1573.090 0.01608
0.02204 0.01208 0.06763 0.07215 0.14792 1.094 0.089 1573.127 0.01610
0.02207 0.01210 0.06773 0.07225 0.14898 0.938 0.083 1573.163 0.01613
0.02210 0.01212 0.06783 0.07236 0.15005 1.050 0.088 1573.200 0.01615
0.02213 0.01214 0.06793 0.07247 0.15112 0.963 0.084 1573.237 0.01617
0.02217 0.01215 0.06803 0.07258 0.15218 1.076 0.089 1573.274 0.01620
0.02220 0.01217 0.06813 0.07268 0.15325 0.950 0.083 1573.310 0.01622
0.02223 0.01219 0.06823 0.07279 0.15432 0.955 0.084 1573.347 0.01625
0.02226 0.01221 0.06833 0.07290 0.15538 1.058 0.088 1573.384 0.01627
0.02230 0.01223 0.06843 0.07301 0.15645 0.850 0.079 1573.420 0.01629
0.02233 0.01224 0.06853 0.07311 0.15752 0.961 0.084 1573.457 0.01632
0.02236 0.01226 0.06864 0.07322 0.15859 0.887 0.081 1573.494 0.01634
0.02240 0.01228 0.06874 0.07333 0.15965 1.006 0.086 1573.531 0.01636
0.02243 0.01230 0.06884 0.07344 0.16072 0.850 0.079 1573.567 0.01639
0.02246 0.01232 0.06894 0.07354 0.16179 1.163 0.092 1573.604 0.01641
0.02249 0.01233 0.06904 0.07365 0.16285 1.028 0.087 1573.641 0.01644
0.02253 0.01235 0.06914 0.07376 0.16392 0.983 0.085 1573.677 0.01646
0.02256 0.01237 0.06924 0.07387 0.16499 0.767 0.075 1573.714 0.01648
0.02259 0.01239 0.06934 0.07397 0.16606 0.910 0.082 1573.751 0.01651
0.02263 0.01241 0.06944 0.07408 0.16712 0.887 0.081 1573.787 0.01653
0.02266 0.01242 0.06954 0.07419 0.16819 1.023 0.087 1573.824 0.01655
0.02269 0.01244 0.06964 0.07430 0.16926 1.036 0.087 1573.861 0.01658
0.02272 0.01246 0.06974 0.07440 0.17033 1.036 0.087 1573.898 0.01660
0.02276 0.01248 0.06985 0.07451 0.17139 0.962 0.084 1573.934 0.01663
0.02279 0.01250 0.06995 0.07462 0.17246 0.857 0.079 1573.971 0.01665
0.02282 0.01251 0.07005 0.07473 0.17353 1.050 0.088 1574.008 0.01667
0.02286 0.01253 0.07015 0.07483 0.17460 0.891 0.081 1574.044 0.01670
0.02289 0.01255 0.07025 0.07494 0.17566 0.995 0.085 1574.081 0.01672
0.02292 0.01257 0.07035 0.07505 0.17673 0.933 0.083 1574.118 0.01674
0.02296 0.01259 0.07045 0.07516 0.17780 0.803 0.077 1574.155 0.01677
0.02299 0.01260 0.07055 0.07527 0.17887 0.905 0.086 1574.191 0.01679
0.02302 0.01262 0.07065 0.07537 0.17994 0.879 0.084 1574.228 0.01682
0.02305 0.01264 0.07075 0.07548 0.18100 0.939 0.087 1574.265 0.01684
0.02309 0.01266 0.07085 0.07559 0.18207 0.992 0.085 1574.301 0.01686
0.02312 0.01268 0.07096 0.07570 0.18314 0.960 0.084 1574.338 0.01689
0.02315 0.01269 0.07106 0.07580 0.18421 0.956 0.084 1574.375 0.01691
0.02319 0.01271 0.07116 0.07591 0.18528 0.834 0.078 1574.412 0.01693
0.02322 0.01273 0.07126 0.07602 0.18634 0.954 0.084 1574.448 0.01696
0.02325 0.01275 0.07136 0.07613 0.18741 1.022 0.087 1574.485 0.01698
0.02328 0.01277 0.07146 0.07623 0.18848 1.054 0.088 1574.522 0.01700
0.02332 0.01278 0.07156 0.07634 0.18955 0.994 0.086 1574.558 0.01703
0.02335 0.01280 0.07166 0.07645 0.19062 0.921 0.082 1574.595 0.01705
0.02338 0.01282 0.07176 0.07656 0.19168 0.891 0.081 1574.632 0.01708
0.02342 0.01284 0.07186 0.07666 0.19275 0.988 0.085 1574.669 0.01710
0.02345 0.01286 0.07196 0.07677 0.19382 1.011 0.086 1574.705 0.01712
0.02348 0.01288 0.07207 0.07688 0.19489 0.951 0.084 1574.742 0.01715
0.02351 0.01289 0.07217 0.07699 0.19596 0.973 0.085 1574.779 0.01717
0.02355 0.01291 0.07227 0.07710 0.19703 0.944 0.083 1574.815 0.01719
0.02358 0.01293 0.07237 0.07720 0.19809 0.922 0.082 1574.852 0.01722
0.02361 0.01295 0.07247 0.07731 0.19916 0.975 0.085 1574.889 0.01724
0.02365 0.01297 0.07257 0.07742 0.20023 0.983 0.085 1574.926 0.01727
0.02368 0.01298 0.07267 0.07753 0.20130 0.938 0.083 1574.962 0.01729
0.02371 0.01300 0.07277 0.07763 0.20237 1.119 0.091 1574.999 0.01731
0.02374 0.01302 0.07287 0.07774 0.20344 1.060 0.088 1575.036 0.01734
0.02378 0.01304 0.07297 0.07785 0.20451 1.060 0.088 1575.072 0.01736
0.02381 0.01306 0.07308 0.07796 0.20557 1.127 0.091 1575.109 0.01738
0.02384 0.01307 0.07318 0.07806 0.20664 1.015 0.087 1575.146 0.01741
0.02388 0.01309 0.07328 0.07817 0.20771 0.924 0.083 1575.183 0.01743
0.02391 0.01311 0.07338 0.07828 0.20878 1.015 0.087 1575.219 0.01746
0.02394 0.01313 0.07348 0.07839 0.20985 1.113 0.091 1575.256 0.01748
0.02397 0.01315 0.07358 0.07850 0.21092 0.978 0.085 1575.293 0.01750
0.02401 0.01316 0.07368 0.07860 0.21199 0.910 0.082 1575.329 0.01753
0.02404 0.01318 0.07378 0.07871 0.21306 1.173 0.093 1575.366 0.01755
0.02407 0.01320 0.07388 0.07882 0.21413 0.902 0.082 1575.403 0.01757
0.02411 0.01322 0.07398 0.07893 0.21519 0.842 0.079 1575.440 0.01760
0.02414 0.01324 0.07409 0.07903 0.21626 0.843 0.079 1575.476 0.01762
0.02417 0.01325 0.07419 0.07914 0.21733 0.835 0.079 1575.513 0.01765
0.02421 0.01327 0.07429 0.07925 0.21840 0.910 0.082 1575.550 0.01767
0.02424 0.01329 0.07439 0.07936 0.21947 0.866 0.080 1575.586 0.01769
0.02427 0.01331 0.07449 0.07947 0.22054 0.798 0.081 1575.623 0.01772
0.02430 0.01333 0.07459 0.07957 0.22161 1.031 0.087 1575.660 0.01774
0.02434 0.01334 0.07469 0.07968 0.22268 0.976 0.093 1575.697 0.01776
0.02437 0.01336 0.07479 0.07979 0.22375 0.876 0.095 1575.733 0.01779
0.02440 0.01338 0.07489 0.07990 0.22482 1.101 0.101 1575.770 0.01781
0.02444 0.01340 0.07499 0.08000 0.22589 1.054 0.099 1575.807 0.01783
0.02447 0.01342 0.07510 0.08011 0.22696 1.073 0.099 1575.843 0.01786
0.02450 0.01343 0.07520 0.08022 0.22803 0.960 0.099 1575.880 0.01788
0.02453 0.01345 0.07530 0.08033 0.22910 0.979 0.095 1575.917 0.01791
0.02457 0.01347 0.07540 0.08044 0.23017 0.998 0.096 1575.954 0.01793
0.02460 0.01349 0.07550 0.08054 0.23124 1.159 0.103 1575.990 0.01795
0.02463 0.01351 0.07560 0.08065 0.23231 0.989 0.096 1576.027 0.01798
0.02467 0.01352 0.07570 0.08076 0.23337 1.065 0.099 1576.064 0.01800
0.02470 0.01354 0.07580 0.08087 0.23444 0.914 0.097 1576.100 0.01802
0.02473 0.01356 0.07590 0.08098 0.23551 1.056 0.099 1576.137 0.01805
0.02476 0.01358 0.07600 0.08108 0.23658 0.990 0.096 1576.174 0.01807
0.02480 0.01360 0.07611 0.08119 0.23765 0.819 0.116 1576.211 0.01810
0.02483 0.01362 0.07621 0.08130 0.23872 0.858 0.095 1576.247 0.01812
0.02486 0.01363 0.07631 0.08141 0.23979 1.056 0.099 1576.284 0.01814
0.02490 0.01365 0.07641 0.08151 0.24086 0.802 0.097 1576.321 0.01817
0.02493 0.01367 0.07651 0.08162 0.24193 1.198 0.105 1576.357 0.01819
0.02496 0.01369 0.07661 0.08173 0.24300 0.840 0.099 1576.394 0.01821
0.02500 0.01371 0.07671 0.08184 0.24407 0.878 0.101 1576.431 0.01824
0.02503 0.01372 0.07681 0.08195 0.24514 0.859 0.100 1576.468 0.01826
0.02506 0.01374 0.07691 0.08205 0.24621 0.793 0.097 1576.504 0.01829
0.02509 0.01376 0.07702 0.08216 0.24728 1.029 0.098 1576.541 0.01831
0.02513 0.01378 0.07712 0.08227 0.24835 1.030 0.098 1576.578 0.01833
0.02516 0.01380 0.07722 0.08238 0.24942 0.870 0.096 1576.614 0.01836
0.02519 0.01381 0.07732 0.08248 0.25049 1.003 0.096 1576.651 0.01838
0.02523 0.01383 0.07742 0.08259 0.25157 1.201 0.105 1576.688 0.01840
0.02526 0.01385 0.07752 0.08270 0.25264 1.192 0.105 1576.725 0.01843
0.02529 0.01387 0.07762 0.08281 0.25371 0.890 0.097 1576.761 0.01845
0.02532 0.01389 0.07772 0.08292 0.25478 0.881 0.090 1576.798 0.01848
0.02536 0.01390 0.07782 0.08302 0.25585 1.004 0.096 1576.835 0.01850
0.02539 0.01392 0.07793 0.08313 0.25692 1.193 0.105 1576.871 0.01852
0.02542 0.01394 0.07803 0.08324 0.25799 1.014 0.097 1576.908 0.01855
0.02546 0.01396 0.07813 0.08335 0.25906 0.938 0.099 1576.945 0.01857
0.02549 0.01398 0.07823 0.08346 0.26013 0.873 0.101 1576.982 0.01859
0.02552 0.01399 0.07833 0.08356 0.26120 0.836 0.099 1577.018 0.01862
0.02556 0.01401 0.07843 0.08367 0.26227 0.911 0.097 1577.055 0.01864
0.02559 0.01403 0.07853 0.08378 0.26334 1.006 0.102 1577.092 0.01866
0.02562 0.01405 0.07863 0.08389 0.26441 1.053 0.104 1577.128 0.01869
0.02565 0.01407 0.07874 0.08400 0.26548 0.921 0.098 1577.165 0.01871
0.02569 0.01408 0.07884 0.08410 0.26655 0.864 0.095 1577.202 0.01874
0.02572 0.01410 0.07894 0.08421 0.26762 0.986 0.096 1577.239 0.01876
0.02575 0.01412 0.07904 0.08432 0.26870 0.807 0.091 1577.275 0.01878
0.02579 0.01414 0.07914 0.08443 0.26977 0.854 0.095 1577.312 0.01881
0.02582 0.01416 0.07924 0.08454 0.27084 0.921 0.092 1577.349 0.01883
0.02585 0.01418 0.07934 0.08464 0.27191 1.091 0.101 1577.385 0.01885
0.02589 0.01419 0.07944 0.08475 0.27298 0.939 0.093 1577.422 0.01888
0.02592 0.01421 0.07954 0.08486 0.27405 1.044 0.098 1577.459 0.01890
0.02595 0.01423 0.07965 0.08497 0.27512 1.043 0.098 1577.496 0.01893
0.02598 0.01425 0.07975 0.08508 0.27619 1.024 0.097 1577.532 0.01895
0.02602 0.01427 0.07985 0.08518 0.27726 0.863 0.095 1577.569 0.01897
0.02605 0.01428 0.07995 0.08529 0.27834 1.025 0.103 1577.606 0.01900
0.02608 0.01430 0.08005 0.08540 0.27941 1.120 0.102 1577.642 0.01902
0.02612 0.01432 0.08015 0.08551 0.28048 0.921 0.098 1577.679 0.01904
0.02615 0.01434 0.08025 0.08562 0.28155 1.054 0.099 1577.716 0.01907
0.02618 0.01436 0.08035 0.08572 0.28262 0.931 0.099 1577.753 0.01909
0.02621 0.01437 0.08046 0.08583 0.28369 0.997 0.096 1577.789 0.01912
0.02625 0.01439 0.08056 0.08594 0.28476 1.025 0.098 1577.826 0.01914
0.02628 0.01441 0.08066 0.08605 0.28584 0.958 0.100 1577.863 0.01916
0.02631 0.01443 0.08076 0.08616 0.28691 1.157 0.104 1577.899 0.01919
0.02635 0.01445 0.08086 0.08626 0.28798 1.072 0.100 1577.936 0.01921
0.02638 0.01446 0.08096 0.08637 0.28905 1.100 0.101 1577.973 0.01923
0.02641 0.01448 0.08106 0.08648 0.29012 1.138 0.103 1578.010 0.01926
0.02645 0.01450 0.08116 0.08659 0.29119 0.987 0.096 1578.046 0.01928
0.02648 0.01452 0.08127 0.08670 0.29227 0.837 0.100 1578.083 0.01931
0.02651 0.01454 0.08137 0.08680 0.29334 0.975 0.095 1578.120 0.01933
0.02654 0.01456 0.08147 0.08691 0.29441 0.801 0.097 1578.156 0.01935
0.02658 0.01457 0.08157 0.08702 0.29548 0.923 0.098 1578.193 0.01938
0.02661 0.01459 0.08167 0.08713 0.29655 0.835 0.094 1578.230 0.01940
0.02664 0.01461 0.08177 0.08724 0.29762 0.929 0.093 1578.267 0.01942
0.02668 0.01463 0.08187 0.08734 0.29870 0.868 0.101 1578.303 0.01945
0.02671 0.01465 0.08197 0.08745 0.29977 0.848 0.094 1578.340 0.01947
0.02674 0.01466 0.08208 0.08756 0.30084 1.077 0.100 1578.377 0.01949
0.02678 0.01468 0.08218 0.08767 0.30191 0.951 0.100 1578.413 0.01952
0.02681 0.01470 0.08228 0.08778 0.30298 0.884 0.096 1578.450 0.01954
0.02684 0.01472 0.08238 0.08788 0.30406 0.937 0.093 1578.487 0.01957
0.02687 0.01474 0.08248 0.08799 0.30513 0.754 0.089 1578.524 0.01959
0.02691 0.01475 0.08258 0.08810 0.30620 0.753 0.101 1578.560 0.01961
