x y z dist_scaled dist_frac flux_norm sig_norm wavelength redshift
0.00664 0.03182 0.04716 0.05727 0.00000 0.992 0.110 1568.036 0.01282
0.00665 0.03188 0.04724 0.05738 0.00106 0.894 0.118 1568.072 0.01284
0.00666 0.03194 0.04733 0.05749 0.00212 1.239 0.116 1568.109 0.01286
0.00668 0.03199 0.04742 0.05759 0.00318 0.960 0.109 1568.146 0.01289
0.00669 0.03205 0.04751 0.05770 0.00425 1.047 0.120 1568.183 0.01291
0.00670 0.03211 0.04760 0.05781 0.00531 1.047 0.113 1568.219 0.01293
0.00671 0.03217 0.04769 0.05791 0.00637 0.937 0.114 1568.256 0.01296
0.00673 0.03223 0.04777 0.05802 0.00743 1.108 0.110 1568.293 0.01298
0.00674 0.03229 0.04786 0.05813 0.00849 1.008 0.118 1568.329 0.01301
0.00675 0.03235 0.04795 0.05824 0.00956 0.973 0.116 1568.366 0.01303
0.00676 0.03241 0.04804 0.05834 0.01062 0.864 0.110 1568.403 0.01305
0.00678 0.03247 0.04813 0.05845 0.01168 0.829 0.115 1568.440 0.01308
0.00679 0.03253 0.04821 0.05856 0.01274 0.944 0.114 1568.476 0.01310
0.00680 0.03259 0.04830 0.05866 0.01380 1.137 0.118 1568.513 0.01312
0.00681 0.03265 0.04839 0.05877 0.01487 0.774 0.105 1568.550 0.01315
0.00683 0.03271 0.04848 0.05888 0.01593 0.911 0.113 1568.586 0.01317
0.00684 0.03277 0.04857 0.05898 0.01699 1.058 0.114 1568.623 0.01319
0.00685 0.03283 0.04865 0.05909 0.01805 0.890 0.119 1568.660 0.01322
0.00686 0.03289 0.04874 0.05920 0.01911 0.947 0.115 1568.697 0.01324
0.00687 0.03295 0.04883 0.05931 0.02018 1.257 0.123 1568.733 0.01327
0.00689 0.03301 0.04892 0.05941 0.02124 0.994 0.118 1568.770 0.01329
0.00690 0.03307 0.04901 0.05952 0.02230 0.967 0.116 1568.807 0.01331
0.00691 0.03312 0.04910 0.05963 0.02336 0.983 0.117 1568.843 0.01334
0.00692 0.03318 0.04918 0.05973 0.02443 1.173 0.113 1568.880 0.01336
0.00694 0.03324 0.04927 0.05984 0.02549 1.073 0.115 1568.917 0.01338
0.00695 0.03330 0.04936 0.05995 0.02655 0.908 0.106 1568.954 0.01341
0.00696 0.03336 0.04945 0.06006 0.02761 0.941 0.115 1568.990 0.01343
0.00697 0.03342 0.04954 0.06016 0.02868 0.696 0.108 1569.027 0.01346
0.00699 0.03348 0.04962 0.06027 0.02974 0.807 0.114 1569.064 0.01348
0.00700 0.03354 0.04971 0.06038 0.03080 0.807 0.114 1569.100 0.01350
0.00701 0.03360 0.04980 0.06048 0.03186 0.774 0.113 1569.137 0.01353
0.00702 0.03366 0.04989 0.06059 0.03293 0.919 0.121 1569.174 0.01355
0.00704 0.03372 0.04998 0.06070 0.03399 1.131 0.118 1569.211 0.01357
0.00705 0.03378 0.05007 0.06081 0.03505 1.142 0.119 1569.247 0.01360
0.00706 0.03384 0.05015 0.06091 0.03611 1.009 0.112 1569.284 0.01362
0.00707 0.03390 0.05024 0.06102 0.03718 0.942 0.108 1569.321 0.01365
0.00709 0.03396 0.05033 0.06113 0.03824 0.786 0.113 1569.357 0.01367
0.00710 0.03402 0.05042 0.06123 0.03930 0.757 0.112 1569.394 0.01369
0.00711 0.03408 0.05051 0.06134 0.04037 0.925 0.114 1569.431 0.01372
0.00712 0.03414 0.05059 0.06145 0.04143 1.009 0.118 1569.468 0.01374
0.00714 0.03420 0.05068 0.06156 0.04249 0.983 0.110 1569.504 0.01376
0.00715 0.03426 0.05077 0.06166 0.04355 0.947 0.109 1569.541 0.01379
0.00716 0.03432 0.05086 0.06177 0.04462 0.928 0.114 1569.578 0.01381
0.00717 0.03437 0.05095 0.06188 0.04568 0.927 0.114 1569.614 0.01384
0.00719 0.03443 0.05104 0.06198 0.04674 1.058 0.120 1569.651 0.01386
0.00720 0.03449 0.05112 0.06209 0.04781 0.987 0.111 1569.688 0.01388
0.00721 0.03455 0.05121 0.06220 0.04887 1.092 0.116 1569.725 0.01391
0.00722 0.03461 0.05130 0.06231 0.04993 0.990 0.117 1569.761 0.01393
0.00723 0.03467 0.05139 0.06241 0.05100 1.065 0.115 1569.798 0.01395
0.00725 0.03473 0.05148 0.06252 0.05206 0.934 0.116 1569.835 0.01398
0.00726 0.03479 0.05157 0.06263 0.05312 0.888 0.112 1569.871 0.01400
0.00727 0.03485 0.05165 0.06273 0.05419 0.920 0.114 1569.908 0.01402
0.00728 0.03491 0.05174 0.06284 0.05525 0.864 0.118 1569.945 0.01405
0.00730 0.03497 0.05183 0.06295 0.05631 0.776 0.113 1569.982 0.01407
0.00731 0.03503 0.05192 0.06306 0.05738 1.130 0.133 1570.018 0.01410
0.00732 0.03509 0.05201 0.06316 0.05844 1.292 0.146 1570.055 0.01412
0.00733 0.03515 0.05209 0.06327 0.05951 1.323 0.148 1570.092 0.01414
0.00735 0.03521 0.05218 0.06338 0.06057 1.055 0.142 1570.128 0.01417
0.00736 0.03527 0.05227 0.06348 0.06163 1.070 0.153 1570.165 0.01419
0.00737 0.03533 0.05236 0.06359 0.06270 1.010 0.149 1570.202 0.01421
0.00738 0.03539 0.05245 0.06370 0.06376 0.951 0.146 1570.239 0.01424
0.00740 0.03545 0.05254 0.06381 0.06482 0.817 0.137 1570.275 0.01426
0.00741 0.03551 0.05262 0.06391 0.06589 1.160 0.149 1570.312 0.01429
0.00742 0.03557 0.05271 0.06402 0.06695 0.847 0.139 1570.349 0.01431
0.00743 0.03563 0.05280 0.06413 0.06802 0.906 0.143 1570.385 0.01433
0.00745 0.03568 0.05289 0.06424 0.06908 1.011 0.149 1570.422 0.01436
0.00746 0.03574 0.05298 0.06434 0.07014 0.876 0.141 1570.459 0.01438
0.00747 0.03580 0.05307 0.06445 0.07121 0.846 0.139 1570.496 0.01440
0.00748 0.03586 0.05315 0.06456 0.07227 0.891 0.142 1570.532 0.01443
0.00750 0.03592 0.05324 0.06466 0.07334 0.728 0.131 1570.569 0.01445
0.00751 0.03598 0.05333 0.06477 0.07440 0.888 0.142 1570.606 0.01448
0.00752 0.03604 0.05342 0.06488 0.07546 1.183 0.140 1570.642 0.01450
0.00753 0.03610 0.05351 0.06499 0.07653 0.890 0.142 1570.679 0.01452
0.00755 0.03616 0.05360 0.06509 0.07759 0.850 0.139 1570.716 0.01455
0.00756 0.03622 0.05368 0.06520 0.07866 0.845 0.139 1570.753 0.01457
0.00757 0.03628 0.05377 0.06531 0.07972 0.721 0.131 1570.789 0.01459
0.00758 0.03634 0.05386 0.06541 0.08079 0.896 0.143 1570.826 0.01462
0.00760 0.03640 0.05395 0.06552 0.08185 1.003 0.149 1570.863 0.01464
0.00761 0.03646 0.05404 0.06563 0.08291 0.877 0.142 1570.899 0.01467
0.00762 0.03652 0.05413 0.06574 0.08398 0.879 0.142 1570.936 0.01469
0.00763 0.03658 0.05421 0.06584 0.08504 0.933 0.145 1570.973 0.01471
0.00765 0.03664 0.05430 0.06595 0.08611 1.003 0.149 1571.010 0.01474
0.00766 0.03670 0.05439 0.06606 0.08717 0.930 0.145 1571.046 0.01476
0.00767 0.03676 0.05448 0.06617 0.08824 0.811 0.138 1571.083 0.01478
0.00768 0.03682 0.05457 0.06627 0.08930 0.850 0.139 1571.120 0.01481
0.00769 0.03688 0.05466 0.06638 0.09037 0.874 0.141 1571.156 0.01483
0.00771 0.03694 0.05474 0.06649 0.09143 0.967 0.147 1571.193 0.01485
0.00772 0.03700 0.05483 0.06660 0.09250 0.766 0.134 1571.230 0.01488
0.00773 0.03706 0.05492 0.06670 0.09356 0.826 0.138 1571.267 0.01490
0.00774 0.03712 0.05501 0.06681 0.09463 0.796 0.136 1571.303 0.01493
0.00776 0.03717 0.05510 0.06692 0.09569 0.947 0.146 1571.340 0.01495
0.00777 0.03723 0.05519 0.06702 0.09676 1.218 0.152 1571.377 0.01497
0.00778 0.03729 0.05527 0.06713 0.09782 0.856 0.140 1571.413 0.01500
0.00779 0.03735 0.05536 0.06724 0.09889 0.917 0.144 1571.450 0.01502
0.00781 0.03741 0.05545 0.06735 0.09995 0.978 0.138 1571.487 0.01504
0.00782 0.03747 0.05554 0.06745 0.10102 1.008 0.150 1571.524 0.01507
0.00783 0.03753 0.05563 0.06756 0.10208 0.933 0.145 1571.560 0.01509
0.00784 0.03759 0.05572 0.06767 0.10315 0.783 0.136 1571.597 0.01512
0.00786 0.03765 0.05581 0.06778 0.10421 0.995 0.139 1571.634 0.01514
0.00787 0.03771 0.05589 0.06788 0.10528 1.087 0.154 1571.670 0.01516
0.00788 0.03777 0.05598 0.06799 0.10634 0.936 0.145 1571.707 0.01519
0.00789 0.03783 0.05607 0.06810 0.10741 0.907 0.144 1571.744 0.01521
0.00791 0.03789 0.05616 0.06821 0.10847 1.194 0.151 1571.781 0.01523
0.00792 0.03795 0.05625 0.06831 0.10954 1.013 0.150 1571.817 0.01526
0.00793 0.03801 0.05634 0.06842 0.11060 1.027 0.151 1571.854 0.01528
0.00794 0.03807 0.05642 0.06853 0.11167 1.012 0.150 1571.891 0.01531
0.00796 0.03813 0.05651 0.06864 0.11273 0.967 0.148 1571.927 0.01533
0.00797 0.03819 0.05660 0.06874 0.11380 0.998 0.149 1571.964 0.01535
0.00798 0.03825 0.05669 0.06885 0.11487 0.862 0.141 1572.001 0.01538
0.00799 0.03831 0.05678 0.06896 0.11593 0.756 0.134 1572.037 0.01540
0.00801 0.03837 0.05687 0.06906 0.11700 1.090 0.155 1572.074 0.01542
0.00802 0.03843 0.05695 0.06917 0.11806 1.105 0.156 1572.111 0.01545
0.00803 0.03849 0.05704 0.06928 0.11913 1.030 0.151 1572.148 0.01547
0.00804 0.03855 0.05713 0.06939 0.12019 1.091 0.155 1572.184 0.01550
0.00806 0.03861 0.05722 0.06949 0.12126 1.197 0.161 1572.221 0.01552
0.00807 0.03867 0.05731 0.06960 0.12233 1.288 0.157 1572.258 0.01554
0.00808 0.03873 0.05740 0.06971 0.12339 0.773 0.135 1572.294 0.01557
0.00809 0.03879 0.05749 0.06982 0.12446 0.940 0.146 1572.331 0.01559
0.00811 0.03885 0.05757 0.06992 0.12552 0.940 0.146 1572.368 0.01561
0.00812 0.03891 0.05766 0.07003 0.12659 0.842 0.155 1572.405 0.01564
0.00813 0.03896 0.05775 0.07014 0.12766 0.895 0.143 1572.441 0.01566
0.00814 0.03902 0.05784 0.07025 0.12872 0.911 0.144 1572.478 0.01568
0.00816 0.03908 0.05793 0.07035 0.12979 1.285 0.158 1572.515 0.01571
0.00817 0.03914 0.05802 0.07046 0.13085 1.014 0.151 1572.551 0.01573
0.00818 0.03920 0.05810 0.07057 0.13192 0.993 0.149 1572.588 0.01576
0.00819 0.03926 0.05819 0.07068 0.13299 0.927 0.145 1572.625 0.01578
0.00821 0.03932 0.05828 0.07078 0.13405 0.999 0.150 1572.662 0.01580
0.00822 0.03938 0.05837 0.07089 0.13512 0.859 0.141 1572.698 0.01583
0.00823 0.03944 0.05846 0.07100 0.13618 0.719 0.132 1572.735 0.01585
0.00824 0.03950 0.05855 0.07111 0.13725 1.121 0.157 1572.772 0.01587
0.00826 0.03956 0.05864 0.07121 0.13832 1.005 0.150 1572.808 0.01590
0.00827 0.03962 0.05872 0.07132 0.13938 1.169 0.149 1572.845 0.01592
0.00828 0.03968 0.05881 0.07143 0.14045 1.036 0.153 1572.882 0.01595
0.00829 0.03974 0.05890 0.07154 0.14152 1.193 0.152 1572.919 0.01597
0.00830 0.03980 0.05899 0.07164 0.14258 1.067 0.155 1572.955 0.01599
0.00832 0.03986 0.05908 0.07175 0.14365 1.231 0.164 1572.992 0.01602
0.00833 0.03992 0.05917 0.07186 0.14472 0.761 0.135 1573.029 0.01604
0.00834 0.03998 0.05926 0.07197 0.14578 0.945 0.147 1573.065 0.01606
0.00835 0.04004 0.05934 0.07207 0.14685 0.915 0.145 1573.102 0.01609
0.00837 0.04010 0.05943 0.07218 0.14792 1.267 0.156 1573.139 0.01611
0.00838 0.04016 0.05952 0.07229 0.14898 0.855 0.141 1573.176 0.01614
0.00839 0.04022 0.05961 0.07240 0.15005 0.825 0.139 1573.212 0.01616
0.00840 0.04028 0.05970 0.07250 0.15112 0.826 0.139 1573.249 0.01618
0.00842 0.04034 0.05979 0.07261 0.15218 0.902 0.144 1573.286 0.01621
0.00843 0.04040 0.05988 0.07272 0.15325 0.949 0.147 1573.322 0.01623
0.00844 0.04046 0.05996 0.07283 0.15432 0.780 0.136 1573.359 0.01625
0.00845 0.04052 0.06005 0.07293 0.15538 0.856 0.141 1573.396 0.01628
0.00847 0.04058 0.06014 0.07304 0.15645 1.041 0.153 1573.433 0.01630
0.00848 0.04064 0.06023 0.07315 0.15752 0.964 0.148 1573.469 0.01633
0.00849 0.04070 0.06032 0.07326 0.15859 0.872 0.143 1573.506 0.01635
0.00850 0.04076 0.06041 0.07336 0.15965 0.704 0.131 1573.543 0.01637
0.00852 0.04082 0.06049 0.07347 0.16072 0.780 0.136 1573.579 0.01640
0.00853 0.04088 0.06058 0.07358 0.16179 0.888 0.144 1573.616 0.01642
0.00854 0.04094 0.06067 0.07369 0.16285 0.964 0.149 1573.653 0.01644
0.00855 0.04100 0.06076 0.07379 0.16392 0.858 0.142 1573.690 0.01647
0.00857 0.04106 0.06085 0.07390 0.16499 0.904 0.145 1573.726 0.01649
0.00858 0.04112 0.06094 0.07401 0.16606 0.905 0.145 1573.763 0.01651
0.00859 0.04117 0.06103 0.07412 0.16712 0.476 0.114 1573.800 0.01654
0.00860 0.04123 0.06111 0.07423 0.16819 0.307 0.098 1573.836 0.01656
0.00862 0.04129 0.06120 0.07433 0.16926 0.246 0.092 1573.873 0.01659
0.00863 0.04135 0.06129 0.07444 0.17033 0.123 0.076 1573.910 0.01661
0.00864 0.04141 0.06138 0.07455 0.17139 0.076 0.068 1573.947 0.01663
0.00865 0.04147 0.06147 0.07466 0.17246 0.168 0.082 1573.983 0.01666
0.00867 0.04153 0.06156 0.07476 0.17353 0.230 0.090 1574.020 0.01668
0.00868 0.04159 0.06165 0.07487 0.17460 0.276 0.095 1574.057 0.01670
0.00869 0.04165 0.06174 0.07498 0.17566 0.429 0.110 1574.093 0.01673
0.00870 0.04171 0.06182 0.07509 0.17673 0.522 0.118 1574.130 0.01675
0.00872 0.04177 0.06191 0.07519 0.17780 0.706 0.132 1574.167 0.01678
0.00873 0.04183 0.06200 0.07530 0.17887 0.737 0.134 1574.204 0.01680
0.00874 0.04189 0.06209 0.07541 0.17994 0.953 0.148 1574.240 0.01682
0.00875 0.04195 0.06218 0.07552 0.18100 0.953 0.148 1574.277 0.01685
0.00877 0.04201 0.06227 0.07562 0.18207 0.799 0.138 1574.314 0.01687
0.00878 0.04207 0.06236 0.07573 0.18314 0.845 0.142 1574.350 0.01689
0.00879 0.04213 0.06244 0.07584 0.18421 0.984 0.150 1574.387 0.01692
0.00880 0.04219 0.06253 0.07595 0.18528 0.983 0.150 1574.424 0.01694
0.00882 0.04225 0.06262 0.07605 0.18634 1.045 0.154 1574.461 0.01697
0.00883 0.04231 0.06271 0.07616 0.18741 0.861 0.143 1574.497 0.01699
0.00884 0.04237 0.06280 0.07627 0.18848 1.030 0.153 1574.534 0.01701
0.00885 0.04243 0.06289 0.07638 0.18955 0.877 0.144 1574.571 0.01704
0.00887 0.04249 0.06298 0.07649 0.19062 1.094 0.157 1574.607 0.01706
0.00888 0.04255 0.06306 0.07659 0.19168 0.724 0.133 1574.644 0.01708
0.00889 0.04261 0.06315 0.07670 0.19275 0.893 0.145 1574.681 0.01711
0.00890 0.04267 0.06324 0.07681 0.19382 0.740 0.135 1574.718 0.01713
0.00892 0.04273 0.06333 0.07692 0.19489 0.771 0.137 1574.754 0.01715
0.00893 0.04279 0.06342 0.07702 0.19596 1.002 0.151 1574.791 0.01718
0.00894 0.04285 0.06351 0.07713 0.19703 1.017 0.152 1574.828 0.01720
0.00895 0.04291 0.06360 0.07724 0.19809 0.740 0.135 1574.864 0.01723
0.00897 0.04297 0.06369 0.07735 0.19916 1.174 0.161 1574.901 0.01725
0.00898 0.04303 0.06377 0.07745 0.20023 1.112 0.148 1574.938 0.01727
0.00899 0.04309 0.06386 0.07756 0.20130 0.818 0.140 1574.975 0.01730
0.00900 0.04315 0.06395 0.07767 0.20237 0.989 0.151 1575.011 0.01732
0.00902 0.04321 0.06404 0.07778 0.20344 0.896 0.145 1575.048 0.01734
0.00903 0.04327 0.06413 0.07789 0.20451 0.928 0.147 1575.085 0.01737
0.00904 0.04333 0.06422 0.07799 0.20557 1.268 0.158 1575.121 0.01739
0.00905 0.04339 0.06431 0.07810 0.20664 1.129 0.150 1575.158 0.01742
0.00907 0.04345 0.06439 0.07821 0.20771 1.223 0.155 1575.195 0.01744
0.00908 0.04351 0.06448 0.07832 0.20878 0.882 0.144 1575.232 0.01746
0.00909 0.04357 0.06457 0.07842 0.20985 0.975 0.150 1575.268 0.01749
0.00910 0.04363 0.06466 0.07853 0.21092 1.240 0.154 1575.305 0.01751
0.00912 0.04369 0.06475 0.07864 0.21199 0.929 0.147 1575.342 0.01753
0.00913 0.04375 0.06484 0.07875 0.21306 0.884 0.145 1575.378 0.01756
0.00914 0.04381 0.06493 0.07886 0.21413 0.853 0.143 1575.415 0.01758
0.00915 0.04387 0.06502 0.07896 0.21519 1.036 0.144 1575.452 0.01761
0.00917 0.04393 0.06510 0.07907 0.21626 0.999 0.152 1575.489 0.01763
0.00918 0.04399 0.06519 0.07918 0.21733 0.937 0.147 1575.525 0.01765
0.00919 0.04405 0.06528 0.07929 0.21840 0.870 0.143 1575.562 0.01768
0.00920 0.04411 0.06537 0.07939 0.21947 1.126 0.150 1575.599 0.01770
0.00922 0.04417 0.06546 0.07950 0.22054 1.139 0.150 1575.635 0.01772
0.00923 0.04423 0.06555 0.07961 0.22161 1.034 0.154 1575.672 0.01775
0.00924 0.04429 0.06564 0.07972 0.22268 0.861 0.143 1575.709 0.01777
0.00925 0.04435 0.06573 0.07983 0.22375 1.071 0.156 1575.746 0.01780
0.00927 0.04441 0.06581 0.07993 0.22482 0.805 0.140 1575.782 0.01782
0.00928 0.04447 0.06590 0.08004 0.22589 0.974 0.151 1575.819 0.01784
0.00929 0.04453 0.06599 0.08015 0.22696 1.046 0.156 1575.856 0.01787
0.00930 0.04459 0.06608 0.08026 0.22803 1.056 0.155 1575.892 0.01789
0.00932 0.04464 0.06617 0.08036 0.22910 1.078 0.157 1575.929 0.01791
0.00933 0.04470 0.06626 0.08047 0.23017 0.863 0.143 1575.966 0.01794
0.00934 0.04476 0.06635 0.08058 0.23124 0.748 0.135 1576.003 0.01796
0.00935 0.04482 0.06644 0.08069 0.23231 1.127 0.159 1576.039 0.01798
0.00937 0.04488 0.06652 0.08080 0.23337 1.008 0.152 1576.076 0.01801
0.00938 0.04494 0.06661 0.08090 0.23444 1.175 0.153 1576.113 0.01803
0.00939 0.04500 0.06670 0.08101 0.23551 1.093 0.158 1576.149 0.01806
0.00940 0.04506 0.06679 0.08112 0.23658 1.218 0.155 1576.186 0.01808
0.00942 0.04512 0.06688 0.08123 0.23765 0.968 0.150 1576.223 0.01810
0.00943 0.04518 0.06697 0.08133 0.23872 1.015 0.153 1576.260 0.01813
0.00944 0.04524 0.06706 0.08144 0.23979 0.999 0.152 1576.296 0.01815
0.00945 0.04530 0.06715 0.08155 0.24086 0.937 0.149 1576.333 0.01817
0.00947 0.04536 0.06724 0.08166 0.24193 1.032 0.154 1576.370 0.01820
0.00948 0.04542 0.06732 0.08177 0.24300 1.188 0.153 1576.406 0.01822
0.00949 0.04548 0.06741 0.08187 0.24407 0.922 0.147 1576.443 0.01825
0.00950 0.04554 0.06750 0.08198 0.24514 0.907 0.147 1576.480 0.01827
0.00952 0.04560 0.06759 0.08209 0.24621 1.080 0.157 1576.517 0.01829
0.00953 0.04566 0.06768 0.08220 0.24728 1.033 0.154 1576.553 0.01832
0.00954 0.04572 0.06777 0.08231 0.24835 0.877 0.145 1576.590 0.01834
0.00955 0.04578 0.06786 0.08241 0.24942 0.860 0.144 1576.627 0.01836
0.00957 0.04584 0.06795 0.08252 0.25050 1.080 0.147 1576.663 0.01839
0.00958 0.04590 0.06803 0.08263 0.25157 1.111 0.159 1576.700 0.01841
0.00959 0.04596 0.06812 0.08274 0.25264 1.237 0.157 1576.737 0.01844
0.00960 0.04602 0.06821 0.08284 0.25371 1.147 0.161 1576.774 0.01846
0.00962 0.04608 0.06830 0.08295 0.25478 0.846 0.143 1576.810 0.01848
0.00963 0.04614 0.06839 0.08306 0.25585 0.767 0.138 1576.847 0.01851
0.00964 0.04620 0.06848 0.08317 0.25692 0.955 0.150 1576.884 0.01853
0.00965 0.04626 0.06857 0.08328 0.25799 0.987 0.152 1576.920 0.01855
0.00967 0.04632 0.06866 0.08338 0.25906 1.066 0.157 1576.957 0.01858
0.00968 0.04638 0.06875 0.08349 0.26013 0.800 0.140 1576.994 0.01860
0.00969 0.04644 0.06883 0.08360 0.26120 0.816 0.141 1577.031 0.01863
0.00970 0.04650 0.06892 0.08371 0.26227 1.178 0.163 1577.067 0.01865
0.00972 0.04656 0.06901 0.08382 0.26334 0.880 0.145 1577.104 0.01867
0.00973 0.04662 0.06910 0.08392 0.26441 1.021 0.154 1577.141 0.01870
0.00974 0.04668 0.06919 0.08403 0.26548 1.242 0.167 1577.177 0.01872
0.00975 0.04674 0.06928 0.08414 0.26655 0.723 0.135 1577.214 0.01874
0.00977 0.04680 0.06937 0.08425 0.26762 0.895 0.147 1577.251 0.01877
0.00978 0.04686 0.06946 0.08436 0.26870 0.926 0.149 1577.287 0.01879
0.00979 0.04692 0.06954 0.08446 0.26977 1.100 0.159 1577.324 0.01881
0.00980 0.04698 0.06963 0.08457 0.27084 1.305 0.161 1577.361 0.01884
0.00982 0.04704 0.06972 0.08468 0.27191 1.337 0.153 1577.398 0.01886
0.00983 0.04710 0.06981 0.08479 0.27298 0.990 0.153 1577.434 0.01889
0.00984 0.04716 0.06990 0.08490 0.27405 1.069 0.157 1577.471 0.01891
0.00985 0.04722 0.06999 0.08500 0.27512 1.038 0.156 1577.508 0.01893
0.00987 0.04728 0.07008 0.08511 0.27619 1.118 0.160 1577.544 0.01896
0.00988 0.04734 0.07017 0.08522 0.27726 1.197 0.155 1577.581 0.01898
0.00989 0.04740 0.07026 0.08533 0.27834 0.771 0.139 1577.618 0.01900
0.00990 0.04746 0.07035 0.08544 0.27941 0.978 0.152 1577.655 0.01903
0.00992 0.04752 0.07043 0.08554 0.28048 1.089 0.159 1577.691 0.01905
0.00993 0.04758 0.07052 0.08565 0.28155 0.805 0.141 1577.728 0.01908
0.00994 0.04764 0.07061 0.08576 0.28262 0.868 0.145 1577.765 0.01910
0.00995 0.04770 0.07070 0.08587 0.28369 1.074 0.148 1577.801 0.01912
0.00997 0.04776 0.07079 0.08598 0.28476 1.043 0.156 1577.838 0.01915
0.00998 0.04782 0.07088 0.08608 0.28584 0.996 0.153 1577.875 0.01917
0.00999 0.04788 0.07097 0.08619 0.28691 0.997 0.153 1577.912 0.01919
0.01000 0.04794 0.07106 0.08630 0.28798 1.014 0.154 1577.948 0.01922
0.01002 0.04800 0.07115 0.08641 0.28905 0.824 0.142 1577.985 0.01924
0.01003 0.04806 0.07123 0.08652 0.29012 1.331 0.162 1578.022 0.01927
0.01004 0.04812 0.07132 0.08662 0.29119 1.173 0.163 1578.058 0.01929
0.01005 0.04818 0.07141 0.08673 0.29227 1.032 0.155 1578.095 0.01931
0.01007 0.04824 0.07150 0.08684 0.29334 0.763 0.138 1578.132 0.01934
0.01008 0.04830 0.07159 0.08695 0.29441 1.001 0.153 1578.169 0.01936
0.01009 0.04836 0.07168 0.08706 0.29548 0.985 0.153 1578.205 0.01938
0.01010 0.04842 0.07177 0.08716 0.29655 0.954 0.151 1578.242 0.01941
0.01012 0.04848 0.07186 0.08727 0.29762 0.875 0.146 1578.279 0.01943
0.01013 0.04854 0.07195 0.08738 0.29870 1.066 0.158 1578.315 0.01946
0.01014 0.04860 0.07203 0.08749 0.29977 1.082 0.148 1578.352 0.01948
0.01015 0.04866 0.07212 0.08760 0.30084 0.876 0.146 1578.389 0.01950
0.01017 0.04872 0.07221 0.08770 0.30191 0.908 0.148 1578.426 0.01953
0.01018 0.04878 0.07230 0.08781 0.30299 1.086 0.159 1578.462 0.01955
0.01019 0.04884 0.07239 0.08792 0.30406 0.831 0.143 1578.499 0.01957
0.01020 0.04890 0.07248 0.08803 0.30513 1.095 0.160 1578.536 0.01960
0.01022 0.04896 0.07257 0.08814 0.30620 1.165 0.154 1578.572 0.01962
