x y z dist_scaled dist_frac flux_norm sig_norm wavelength redshift
-0.02291 -0.00651 0.05205 0.05724 0.00000 1.006 0.243 1568.024 0.01281
-0.02295 -0.00652 0.05214 0.05734 0.00106 1.039 0.246 1568.060 0.01283
-0.02300 -0.00654 0.05224 0.05745 0.00212 1.006 0.243 1568.097 0.01285
-0.02304 -0.00655 0.05234 0.05756 0.00318 0.775 0.222 1568.134 0.01288
-0.02308 -0.00656 0.05243 0.05766 0.00425 0.973 0.240 1568.170 0.01290
-0.02312 -0.00657 0.05253 0.05777 0.00531 0.906 0.234 1568.207 0.01293
-0.02317 -0.00658 0.05263 0.05788 0.00637 1.104 0.250 1568.244 0.01295
-0.02321 -0.00660 0.05273 0.05799 0.00743 1.237 0.261 1568.281 0.01297
-0.02325 -0.00661 0.05282 0.05809 0.00849 1.304 0.267 1568.317 0.01300
-0.02330 -0.00662 0.05292 0.05820 0.00956 0.909 0.235 1568.354 0.01302
-0.02334 -0.00663 0.05302 0.05831 0.01062 0.975 0.240 1568.391 0.01304
-0.02338 -0.00665 0.05312 0.05841 0.01168 1.041 0.246 1568.427 0.01307
-0.02342 -0.00666 0.05321 0.05852 0.01274 1.008 0.243 1568.464 0.01309
-0.02347 -0.00667 0.05331 0.05863 0.01380 1.008 0.244 1568.501 0.01312
-0.02351 -0.00668 0.05341 0.05873 0.01487 1.008 0.243 1568.537 0.01314
-0.02355 -0.00669 0.05351 0.05884 0.01593 1.303 0.267 1568.574 0.01316
-0.02360 -0.00671 0.05360 0.05895 0.01699 1.005 0.243 1568.611 0.01319
-0.02364 -0.00672 0.05370 0.05906 0.01805 0.675 0.213 1568.648 0.01321
-0.02368 -0.00673 0.05380 0.05916 0.01911 0.872 0.232 1568.684 0.01323
-0.02372 -0.00674 0.05389 0.05927 0.02018 1.036 0.246 1568.721 0.01326
-0.02377 -0.00675 0.05399 0.05938 0.02124 1.135 0.255 1568.758 0.01328
-0.02381 -0.00677 0.05409 0.05948 0.02230 0.772 0.222 1568.794 0.01331
-0.02385 -0.00678 0.05419 0.05959 0.02336 0.772 0.221 1568.831 0.01333
-0.02390 -0.00679 0.05428 0.05970 0.02443 1.135 0.255 1568.868 0.01335
-0.02394 -0.00680 0.05438 0.05981 0.02549 1.268 0.265 1568.905 0.01338
-0.02398 -0.00682 0.05448 0.05991 0.02655 0.740 0.218 1568.941 0.01340
-0.02402 -0.00683 0.05458 0.06002 0.02761 1.037 0.247 1568.978 0.01342
-0.02407 -0.00684 0.05467 0.06013 0.02868 0.840 0.229 1569.015 0.01345
-0.02411 -0.00685 0.05477 0.06023 0.02974 1.071 0.250 1569.051 0.01347
-0.02415 -0.00686 0.05487 0.06034 0.03080 0.740 0.220 1569.088 0.01350
-0.02420 -0.00688 0.05497 0.06045 0.03186 0.774 0.223 1569.125 0.01352
-0.02424 -0.00689 0.05506 0.06056 0.03293 0.774 0.223 1569.162 0.01354
-0.02428 -0.00690 0.05516 0.06066 0.03399 1.403 0.275 1569.198 0.01357
-0.02432 -0.00691 0.05526 0.06077 0.03505 0.908 0.236 1569.235 0.01359
-0.02437 -0.00693 0.05536 0.06088 0.03611 0.841 0.229 1569.272 0.01361
-0.02441 -0.00694 0.05545 0.06098 0.03718 0.642 0.210 1569.308 0.01364
-0.02445 -0.00695 0.05555 0.06109 0.03824 1.468 0.280 1569.345 0.01366
-0.02450 -0.00696 0.05565 0.06120 0.03930 0.973 0.241 1569.382 0.01368
-0.02454 -0.00697 0.05575 0.06131 0.04037 1.106 0.253 1569.419 0.01371
-0.02458 -0.00699 0.05584 0.06141 0.04143 0.907 0.235 1569.455 0.01373
-0.02462 -0.00700 0.05594 0.06152 0.04249 0.973 0.241 1569.492 0.01376
-0.02467 -0.00701 0.05604 0.06163 0.04355 1.271 0.266 1569.529 0.01378
-0.02471 -0.00702 0.05614 0.06173 0.04462 0.841 0.230 1569.565 0.01380
-0.02475 -0.00703 0.05623 0.06184 0.04568 1.238 0.263 1569.602 0.01383
-0.02480 -0.00705 0.05633 0.06195 0.04674 1.105 0.252 1569.639 0.01385
-0.02484 -0.00706 0.05643 0.06206 0.04781 1.006 0.244 1569.676 0.01387
-0.02488 -0.00707 0.05652 0.06216 0.04887 1.139 0.255 1569.712 0.01390
-0.02492 -0.00708 0.05662 0.06227 0.04993 1.470 0.281 1569.749 0.01392
-0.02497 -0.00710 0.05672 0.06238 0.05100 1.140 0.256 1569.786 0.01395
-0.02501 -0.00711 0.05682 0.06248 0.05206 1.009 0.245 1569.822 0.01397
-0.02505 -0.00712 0.05691 0.06259 0.05312 0.811 0.227 1569.859 0.01399
-0.02510 -0.00713 0.05701 0.06270 0.05419 0.944 0.239 1569.896 0.01402
-0.02514 -0.00714 0.05711 0.06281 0.05525 0.680 0.213 1569.933 0.01404
-0.02518 -0.00716 0.05721 0.06291 0.05631 1.077 0.250 1569.969 0.01406
-0.02522 -0.00717 0.05730 0.06302 0.05738 1.077 0.250 1570.006 0.01409
-0.02527 -0.00718 0.05740 0.06313 0.05844 1.011 0.245 1570.043 0.01411
-0.02531 -0.00719 0.05750 0.06323 0.05951 0.744 0.220 1570.079 0.01414
-0.02535 -0.00721 0.05760 0.06334 0.06057 1.142 0.256 1570.116 0.01416
-0.02540 -0.00722 0.05769 0.06345 0.06163 0.810 0.227 1570.153 0.01418
-0.02544 -0.00723 0.05779 0.06356 0.06270 0.877 0.232 1570.190 0.01421
-0.02548 -0.00724 0.05789 0.06366 0.06376 0.976 0.242 1570.226 0.01423
-0.02553 -0.00725 0.05799 0.06377 0.06482 1.074 0.251 1570.263 0.01425
-0.02557 -0.00727 0.05808 0.06388 0.06589 0.942 0.239 1570.300 0.01428
-0.02561 -0.00728 0.05818 0.06398 0.06695 1.075 0.250 1570.336 0.01430
-0.02565 -0.00729 0.05828 0.06409 0.06802 0.776 0.223 1570.373 0.01433
-0.02570 -0.00730 0.05838 0.06420 0.06908 0.809 0.227 1570.410 0.01435
-0.02574 -0.00732 0.05847 0.06431 0.07014 0.975 0.242 1570.447 0.01437
-0.02578 -0.00733 0.05857 0.06441 0.07121 1.074 0.251 1570.483 0.01440
-0.02583 -0.00734 0.05867 0.06452 0.07227 1.043 0.248 1570.520 0.01442
-0.02587 -0.00735 0.05877 0.06463 0.07334 1.111 0.253 1570.557 0.01444
-0.02591 -0.00736 0.05886 0.06474 0.07440 0.978 0.242 1570.593 0.01447
-0.02595 -0.00738 0.05896 0.06484 0.07546 0.679 0.214 1570.630 0.01449
-0.02600 -0.00739 0.05906 0.06495 0.07653 0.779 0.224 1570.667 0.01451
-0.02604 -0.00740 0.05916 0.06506 0.07759 0.679 0.214 1570.704 0.01454
-0.02608 -0.00741 0.05925 0.06516 0.07866 0.911 0.237 1570.740 0.01456
-0.02613 -0.00743 0.05935 0.06527 0.07972 0.811 0.227 1570.777 0.01459
-0.02617 -0.00744 0.05945 0.06538 0.08079 0.811 0.227 1570.814 0.01461
-0.02621 -0.00745 0.05955 0.06549 0.08185 1.110 0.253 1570.850 0.01463
-0.02625 -0.00746 0.05965 0.06559 0.08291 0.811 0.228 1570.887 0.01466
-0.02630 -0.00747 0.05974 0.06570 0.08398 0.712 0.218 1570.924 0.01468
-0.02634 -0.00749 0.05984 0.06581 0.08504 1.045 0.248 1570.961 0.01470
-0.02638 -0.00750 0.05994 0.06592 0.08611 0.646 0.211 1570.997 0.01473
-0.02643 -0.00751 0.06004 0.06602 0.08717 1.213 0.262 1571.034 0.01475
-0.02647 -0.00752 0.06013 0.06613 0.08824 1.047 0.248 1571.071 0.01478
-0.02651 -0.00754 0.06023 0.06624 0.08930 1.214 0.261 1571.107 0.01480
-0.02656 -0.00755 0.06033 0.06634 0.09037 0.980 0.243 1571.144 0.01482
-0.02660 -0.00756 0.06043 0.06645 0.09143 1.081 0.251 1571.181 0.01485
-0.02664 -0.00757 0.06052 0.06656 0.09250 0.883 0.233 1571.218 0.01487
-0.02668 -0.00758 0.06062 0.06667 0.09356 1.150 0.257 1571.254 0.01489
-0.02673 -0.00760 0.06072 0.06677 0.09463 1.016 0.246 1571.291 0.01492
-0.02677 -0.00761 0.06082 0.06688 0.09569 0.917 0.237 1571.328 0.01494
-0.02681 -0.00762 0.06091 0.06699 0.09676 0.684 0.214 1571.364 0.01497
-0.02686 -0.00763 0.06101 0.06710 0.09782 0.818 0.228 1571.401 0.01499
-0.02690 -0.00765 0.06111 0.06720 0.09889 1.052 0.249 1571.438 0.01501
-0.02694 -0.00766 0.06121 0.06731 0.09995 0.853 0.231 1571.475 0.01504
-0.02699 -0.00767 0.06130 0.06742 0.10102 0.854 0.231 1571.511 0.01506
-0.02703 -0.00768 0.06140 0.06753 0.10208 0.921 0.237 1571.548 0.01508
-0.02707 -0.00769 0.06150 0.06763 0.10315 0.922 0.237 1571.585 0.01511
-0.02711 -0.00771 0.06160 0.06774 0.10421 1.255 0.265 1571.621 0.01513
-0.02716 -0.00772 0.06169 0.06785 0.10528 1.021 0.246 1571.658 0.01516
-0.02720 -0.00773 0.06179 0.06796 0.10634 0.853 0.231 1571.695 0.01518
-0.02724 -0.00774 0.06189 0.06806 0.10741 0.886 0.235 1571.732 0.01520
-0.02729 -0.00775 0.06199 0.06817 0.10847 1.321 0.271 1571.768 0.01523
-0.02733 -0.00777 0.06209 0.06828 0.10954 0.719 0.217 1571.805 0.01525
-0.02737 -0.00778 0.06218 0.06838 0.11060 1.387 0.276 1571.842 0.01527
-0.02742 -0.00779 0.06228 0.06849 0.11167 0.920 0.238 1571.878 0.01530
-0.02746 -0.00780 0.06238 0.06860 0.11273 1.088 0.252 1571.915 0.01532
-0.02750 -0.00782 0.06248 0.06871 0.11380 1.055 0.249 1571.952 0.01534
-0.02754 -0.00783 0.06257 0.06881 0.11487 1.256 0.265 1571.989 0.01537
-0.02759 -0.00784 0.06267 0.06892 0.11593 0.721 0.218 1572.025 0.01539
-0.02763 -0.00785 0.06277 0.06903 0.11700 1.223 0.262 1572.062 0.01542
-0.02767 -0.00786 0.06287 0.06914 0.11806 1.156 0.258 1572.099 0.01544
-0.02772 -0.00788 0.06296 0.06924 0.11913 0.687 0.216 1572.135 0.01546
-0.02776 -0.00789 0.06306 0.06935 0.12019 0.420 0.185 1572.172 0.01549
-0.02780 -0.00790 0.06316 0.06946 0.12126 0.822 0.229 1572.209 0.01551
-0.02784 -0.00791 0.06326 0.06957 0.12233 0.788 0.225 1572.246 0.01553
-0.02789 -0.00793 0.06335 0.06967 0.12339 0.735 0.219 1572.282 0.01556
-0.02793 -0.00794 0.06345 0.06978 0.12446 0.972 0.244 1572.319 0.01558
-0.02797 -0.00795 0.06355 0.06989 0.12552 1.016 0.247 1572.356 0.01561
-0.02802 -0.00796 0.06365 0.07000 0.12659 0.861 0.232 1572.392 0.01563
-0.02806 -0.00797 0.06375 0.07010 0.12766 1.067 0.250 1572.429 0.01565
-0.02810 -0.00799 0.06384 0.07021 0.12872 1.325 0.271 1572.466 0.01568
-0.02815 -0.00800 0.06394 0.07032 0.12979 0.886 0.235 1572.503 0.01570
-0.02819 -0.00801 0.06404 0.07043 0.13085 1.514 0.286 1572.539 0.01572
-0.02823 -0.00802 0.06414 0.07053 0.13192 1.354 0.272 1572.576 0.01575
-0.02828 -0.00804 0.06423 0.07064 0.13299 1.215 0.264 1572.613 0.01577
-0.02832 -0.00805 0.06433 0.07075 0.13405 1.243 0.266 1572.649 0.01580
-0.02836 -0.00806 0.06443 0.07086 0.13512 1.413 0.279 1572.686 0.01582
-0.02840 -0.00807 0.06453 0.07096 0.13618 1.289 0.269 1572.723 0.01584
-0.02845 -0.00808 0.06463 0.07107 0.13725 0.884 0.232 1572.760 0.01587
-0.02849 -0.00810 0.06472 0.07118 0.13832 0.567 0.205 1572.796 0.01589
-0.02853 -0.00811 0.06482 0.07129 0.13938 0.904 0.236 1572.833 0.01591
-0.02858 -0.00812 0.06492 0.07139 0.14045 1.261 0.267 1572.870 0.01594
-0.02862 -0.00813 0.06502 0.07150 0.14152 0.952 0.238 1572.906 0.01596
-0.02866 -0.00815 0.06511 0.07161 0.14258 0.828 0.229 1572.943 0.01599
-0.02871 -0.00816 0.06521 0.07172 0.14365 0.962 0.242 1572.980 0.01601
-0.02875 -0.00817 0.06531 0.07182 0.14472 0.794 0.226 1573.017 0.01603
-0.02879 -0.00818 0.06541 0.07193 0.14578 1.333 0.272 1573.053 0.01606
-0.02883 -0.00819 0.06551 0.07204 0.14685 0.862 0.233 1573.090 0.01608
-0.02888 -0.00821 0.06560 0.07215 0.14792 0.794 0.226 1573.127 0.01610
-0.02892 -0.00822 0.06570 0.07225 0.14898 0.895 0.236 1573.163 0.01613
-0.02896 -0.00823 0.06580 0.07236 0.15005 1.128 0.256 1573.200 0.01615
-0.02901 -0.00824 0.06590 0.07247 0.15112 1.363 0.274 1573.237 0.01617
-0.02905 -0.00826 0.06599 0.07258 0.15218 0.859 0.232 1573.274 0.01620
-0.02909 -0.00827 0.06609 0.07268 0.15325 0.725 0.220 1573.310 0.01622
-0.02914 -0.00828 0.06619 0.07279 0.15432 1.028 0.248 1573.347 0.01625
-0.02918 -0.00829 0.06629 0.07290 0.15538 0.859 0.233 1573.384 0.01627
-0.02922 -0.00831 0.06639 0.07301 0.15645 0.960 0.242 1573.420 0.01629
-0.02926 -0.00832 0.06648 0.07311 0.15752 0.927 0.239 1573.457 0.01632
-0.02931 -0.00833 0.06658 0.07322 0.15859 1.365 0.274 1573.494 0.01634
-0.02935 -0.00834 0.06668 0.07333 0.15965 1.061 0.251 1573.531 0.01636
-0.02939 -0.00835 0.06678 0.07344 0.16072 0.725 0.220 1573.567 0.01639
-0.02944 -0.00837 0.06687 0.07354 0.16179 0.758 0.223 1573.604 0.01641
-0.02948 -0.00838 0.06697 0.07365 0.16285 0.825 0.230 1573.641 0.01644
-0.02952 -0.00839 0.06707 0.07376 0.16392 1.094 0.254 1573.677 0.01646
-0.02957 -0.00840 0.06717 0.07387 0.16499 1.195 0.262 1573.714 0.01648
-0.02961 -0.00842 0.06727 0.07397 0.16606 0.656 0.213 1573.751 0.01651
-0.02965 -0.00843 0.06736 0.07408 0.16712 0.993 0.245 1573.787 0.01653
-0.02970 -0.00844 0.06746 0.07419 0.16819 0.994 0.245 1573.824 0.01655
-0.02974 -0.00845 0.06756 0.07430 0.16926 0.792 0.227 1573.861 0.01658
-0.02978 -0.00846 0.06766 0.07440 0.17033 1.164 0.260 1573.898 0.01660
-0.02982 -0.00848 0.06775 0.07451 0.17139 0.758 0.224 1573.934 0.01663
-0.02987 -0.00849 0.06785 0.07462 0.17246 0.995 0.245 1573.971 0.01665
-0.02991 -0.00850 0.06795 0.07473 0.17353 0.962 0.243 1574.008 0.01667
-0.02995 -0.00851 0.06805 0.07483 0.17460 0.860 0.234 1574.044 0.01670
-0.03000 -0.00853 0.06815 0.07494 0.17566 0.624 0.207 1574.081 0.01672
-0.03004 -0.00854 0.06824 0.07505 0.17673 1.232 0.265 1574.118 0.01674
-0.03008 -0.00855 0.06834 0.07516 0.17780 1.130 0.258 1574.155 0.01677
-0.03013 -0.00856 0.06844 0.07527 0.17887 0.861 0.232 1574.191 0.01679
-0.03017 -0.00857 0.06854 0.07537 0.17994 1.030 0.249 1574.228 0.01682
-0.03021 -0.00859 0.06864 0.07548 0.18100 0.929 0.240 1574.265 0.01684
-0.03026 -0.00860 0.06873 0.07559 0.18207 1.030 0.249 1574.301 0.01686
-0.03030 -0.00861 0.06883 0.07570 0.18314 0.895 0.236 1574.338 0.01689
-0.03034 -0.00862 0.06893 0.07580 0.18421 0.795 0.228 1574.375 0.01691
-0.03038 -0.00864 0.06903 0.07591 0.18528 0.559 0.203 1574.412 0.01693
-0.03043 -0.00865 0.06912 0.07602 0.18634 1.101 0.254 1574.448 0.01696
-0.03047 -0.00866 0.06922 0.07613 0.18741 0.965 0.243 1574.485 0.01698
-0.03051 -0.00867 0.06932 0.07623 0.18848 1.033 0.249 1574.522 0.01700
-0.03056 -0.00868 0.06942 0.07634 0.18955 0.728 0.221 1574.558 0.01703
-0.03060 -0.00870 0.06952 0.07645 0.19062 1.101 0.255 1574.595 0.01705
-0.03064 -0.00871 0.06961 0.07656 0.19168 1.203 0.263 1574.632 0.01708
-0.03069 -0.00872 0.06971 0.07666 0.19275 1.034 0.248 1574.669 0.01710
-0.03073 -0.00873 0.06981 0.07677 0.19382 1.305 0.271 1574.705 0.01712
-0.03077 -0.00875 0.06991 0.07688 0.19489 1.237 0.266 1574.742 0.01715
-0.03082 -0.00876 0.07001 0.07699 0.19596 1.271 0.269 1574.779 0.01717
-0.03086 -0.00877 0.07010 0.07710 0.19703 1.238 0.266 1574.815 0.01719
-0.03090 -0.00878 0.07020 0.07720 0.19809 1.069 0.253 1574.852 0.01722
-0.03094 -0.00879 0.07030 0.07731 0.19916 1.069 0.253 1574.889 0.01724
-0.03099 -0.00881 0.07040 0.07742 0.20023 0.900 0.237 1574.926 0.01727
-0.03103 -0.00882 0.07050 0.07753 0.20130 0.832 0.231 1574.962 0.01729
-0.03107 -0.00883 0.07059 0.07763 0.20237 1.409 0.279 1574.999 0.01731
-0.03112 -0.00884 0.07069 0.07774 0.20344 0.900 0.237 1575.036 0.01734
-0.03116 -0.00886 0.07079 0.07785 0.20451 1.002 0.247 1575.072 0.01736
-0.03120 -0.00887 0.07089 0.07796 0.20557 0.798 0.229 1575.109 0.01738
-0.03125 -0.00888 0.07099 0.07806 0.20664 0.967 0.244 1575.146 0.01741
-0.03129 -0.00889 0.07108 0.07817 0.20771 0.832 0.232 1575.183 0.01743
-0.03133 -0.00891 0.07118 0.07828 0.20878 0.765 0.224 1575.219 0.01746
-0.03138 -0.00892 0.07128 0.07839 0.20985 1.003 0.247 1575.256 0.01748
-0.03142 -0.00893 0.07138 0.07850 0.21092 0.901 0.238 1575.293 0.01750
-0.03146 -0.00894 0.07148 0.07860 0.21199 0.971 0.243 1575.329 0.01753
-0.03151 -0.00895 0.07157 0.07871 0.21306 1.005 0.247 1575.366 0.01755
-0.03155 -0.00897 0.07167 0.07882 0.21413 1.106 0.256 1575.403 0.01757
-0.03159 -0.00898 0.07177 0.07893 0.21519 1.005 0.246 1575.440 0.01760
-0.03163 -0.00899 0.07187 0.07903 0.21626 1.106 0.256 1575.476 0.01762
-0.03168 -0.00900 0.07197 0.07914 0.21733 1.039 0.250 1575.513 0.01765
-0.03172 -0.00902 0.07206 0.07925 0.21840 1.516 0.287 1575.550 0.01767
-0.03176 -0.00903 0.07216 0.07936 0.21947 0.699 0.217 1575.586 0.01769
-0.03181 -0.00904 0.07226 0.07947 0.22054 0.903 0.238 1575.623 0.01772
-0.03185 -0.00905 0.07236 0.07957 0.22161 0.938 0.241 1575.660 0.01774
-0.03189 -0.00906 0.07246 0.07968 0.22268 0.837 0.232 1575.697 0.01776
-0.03194 -0.00908 0.07255 0.07979 0.22375 1.042 0.250 1575.733 0.01779
-0.03198 -0.00909 0.07265 0.07990 0.22482 1.008 0.247 1575.770 0.01781
-0.03202 -0.00910 0.07275 0.08000 0.22589 0.804 0.229 1575.807 0.01783
-0.03207 -0.00911 0.07285 0.08011 0.22696 1.451 0.283 1575.843 0.01786
-0.03211 -0.00913 0.07295 0.08022 0.22803 0.804 0.228 1575.880 0.01788
-0.03215 -0.00914 0.07304 0.08033 0.22910 1.008 0.248 1575.917 0.01791
-0.03220 -0.00915 0.07314 0.08044 0.23017 1.179 0.262 1575.954 0.01793
-0.03224 -0.00916 0.07324 0.08054 0.23124 1.111 0.256 1575.990 0.01795
-0.03228 -0.00917 0.07334 0.08065 0.23231 1.009 0.248 1576.027 0.01798
-0.03233 -0.00919 0.07344 0.08076 0.23337 0.906 0.239 1576.064 0.01800
-0.03237 -0.00920 0.07353 0.08087 0.23444 1.043 0.251 1576.100 0.01802
-0.03241 -0.00921 0.07363 0.08098 0.23551 1.112 0.256 1576.137 0.01805
-0.03245 -0.00922 0.07373 0.08108 0.23658 1.248 0.268 1576.174 0.01807
-0.03250 -0.00924 0.07383 0.08119 0.23765 1.555 0.290 1576.211 0.01810
-0.03254 -0.00925 0.07393 0.08130 0.23872 1.179 0.262 1576.247 0.01812
-0.03258 -0.00926 0.07402 0.08141 0.23979 0.872 0.235 1576.284 0.01814
-0.03263 -0.00927 0.07412 0.08151 0.24086 0.770 0.226 1576.321 0.01817
-0.03267 -0.00929 0.07422 0.08162 0.24193 0.840 0.233 1576.357 0.01819
-0.03271 -0.00930 0.07432 0.08173 0.24300 1.592 0.293 1576.394 0.01821
-0.03276 -0.00931 0.07442 0.08184 0.24407 1.046 0.250 1576.431 0.01824
-0.03280 -0.00932 0.07451 0.08195 0.24514 0.909 0.239 1576.468 0.01826
-0.03284 -0.00933 0.07461 0.08205 0.24621 0.875 0.236 1576.504 0.01829
-0.03289 -0.00935 0.07471 0.08216 0.24728 1.080 0.254 1576.541 0.01831
-0.03293 -0.00936 0.07481 0.08227 0.24835 0.942 0.242 1576.578 0.01833
-0.03297 -0.00937 0.07491 0.08238 0.24942 0.943 0.243 1576.614 0.01836
-0.03302 -0.00938 0.07500 0.08248 0.25049 1.319 0.273 1576.651 0.01838
-0.03306 -0.00940 0.07510 0.08259 0.25157 0.841 0.233 1576.688 0.01840
-0.03310 -0.00941 0.07520 0.08270 0.25264 0.602 0.208 1576.725 0.01843
-0.03315 -0.00942 0.07530 0.08281 0.25371 1.080 0.254 1576.761 0.01845
-0.03319 -0.00943 0.07540 0.08292 0.25478 1.047 0.252 1576.798 0.01848
-0.03323 -0.00944 0.07550 0.08302 0.25585 0.979 0.246 1576.835 0.01850
-0.03328 -0.00946 0.07559 0.08313 0.25692 0.980 0.246 1576.871 0.01852
-0.03332 -0.00947 0.07569 0.08324 0.25799 1.357 0.277 1576.908 0.01855
-0.03336 -0.00948 0.07579 0.08335 0.25906 1.118 0.258 1576.945 0.01857
-0.03340 -0.00949 0.07589 0.08346 0.26013 1.049 0.252 1576.982 0.01859
-0.03345 -0.00951 0.07599 0.08356 0.26120 1.289 0.271 1577.018 0.01862
-0.03349 -0.00952 0.07608 0.08367 0.26227 0.979 0.246 1577.055 0.01864
-0.03353 -0.00953 0.07618 0.08378 0.26334 0.910 0.239 1577.092 0.01866
-0.03358 -0.00954 0.07628 0.08389 0.26441 1.013 0.249 1577.128 0.01869
-0.03362 -0.00956 0.07638 0.08400 0.26548 1.048 0.252 1577.165 0.01871
-0.03366 -0.00957 0.07648 0.08410 0.26655 1.254 0.269 1577.202 0.01874
-0.03371 -0.00958 0.07657 0.08421 0.26762 1.014 0.249 1577.239 0.01876
-0.03375 -0.00959 0.07667 0.08432 0.26870 1.014 0.249 1577.275 0.01878
-0.03379 -0.00960 0.07677 0.08443 0.26977 1.186 0.263 1577.312 0.01881
-0.03384 -0.00962 0.07687 0.08454 0.27084 0.843 0.234 1577.349 0.01883
-0.03388 -0.00963 0.07697 0.08464 0.27191 0.568 0.205 1577.385 0.01885
-0.03392 -0.00964 0.07707 0.08475 0.27298 0.844 0.233 1577.422 0.01888
-0.03397 -0.00965 0.07716 0.08486 0.27405 0.879 0.237 1577.459 0.01890
-0.03401 -0.00967 0.07726 0.08497 0.27512 1.188 0.264 1577.496 0.01893
-0.03405 -0.00968 0.07736 0.08508 0.27619 0.880 0.236 1577.532 0.01895
-0.03410 -0.00969 0.07746 0.08518 0.27726 1.086 0.256 1577.569 0.01897
-0.03414 -0.00970 0.07756 0.08529 0.27834 1.189 0.264 1577.606 0.01900
-0.03418 -0.00971 0.07765 0.08540 0.27941 0.777 0.227 1577.642 0.01902
-0.03423 -0.00973 0.07775 0.08551 0.28048 0.845 0.234 1577.679 0.01904
-0.03427 -0.00974 0.07785 0.08562 0.28155 0.844 0.234 1577.716 0.01907
-0.03431 -0.00975 0.07795 0.08572 0.28262 1.119 0.258 1577.753 0.01909
-0.03436 -0.00976 0.07805 0.08583 0.28369 1.155 0.261 1577.789 0.01912
-0.03440 -0.00978 0.07815 0.08594 0.28476 1.190 0.264 1577.826 0.01914
-0.03444 -0.00979 0.07824 0.08605 0.28584 1.121 0.259 1577.863 0.01916
-0.03448 -0.00980 0.07834 0.08616 0.28691 1.189 0.264 1577.899 0.01919
-0.03453 -0.00981 0.07844 0.08626 0.28798 0.707 0.220 1577.936 0.01921
-0.03457 -0.00983 0.07854 0.08637 0.28905 0.880 0.236 1577.973 0.01923
-0.03461 -0.00984 0.07864 0.08648 0.29012 1.224 0.267 1578.010 0.01926
-0.03466 -0.00985 0.07873 0.08659 0.29119 0.672 0.217 1578.046 0.01928
-0.03470 -0.00986 0.07883 0.08670 0.29227 0.878 0.238 1578.083 0.01931
-0.03474 -0.00987 0.07893 0.08680 0.29334 0.774 0.227 1578.120 0.01933
-0.03479 -0.00989 0.07903 0.08691 0.29441 0.842 0.235 1578.156 0.01935
-0.03483 -0.00990 0.07913 0.08702 0.29548 1.221 0.267 1578.193 0.01938
-0.03487 -0.00991 0.07923 0.08713 0.29655 0.636 0.214 1578.230 0.01940
-0.03492 -0.00992 0.07932 0.08724 0.29762 0.946 0.244 1578.267 0.01942
