x y z dist_scaled dist_frac flux_norm sig_norm wavelength redshift
-0.02823 0.01269 0.04814 0.05723 0.00000 1.196 0.306 1568.021 0.01281
-0.02828 0.01272 0.04823 0.05734 0.00106 0.817 0.269 1568.058 0.01283
-0.02833 0.01274 0.04832 0.05744 0.00212 1.157 0.302 1568.094 0.01285
-0.02839 0.01276 0.04841 0.05755 0.00318 0.902 0.278 1568.131 0.01288
-0.02844 0.01279 0.04850 0.05766 0.00425 0.732 0.260 1568.168 0.01290
-0.02849 0.01281 0.04859 0.05776 0.00531 0.902 0.278 1568.204 0.01292
-0.02854 0.01283 0.04868 0.05787 0.00637 0.904 0.278 1568.241 0.01295
-0.02860 0.01286 0.04877 0.05798 0.00743 1.160 0.303 1568.278 0.01297
-0.02865 0.01288 0.04886 0.05808 0.00849 1.203 0.307 1568.315 0.01300
-0.02870 0.01291 0.04895 0.05819 0.00956 0.773 0.265 1568.351 0.01302
-0.02876 0.01293 0.04904 0.05830 0.01062 0.944 0.282 1568.388 0.01304
-0.02881 0.01295 0.04913 0.05841 0.01168 1.072 0.296 1568.425 0.01307
-0.02886 0.01298 0.04922 0.05851 0.01274 0.984 0.288 1568.462 0.01309
-0.02891 0.01300 0.04931 0.05862 0.01380 0.944 0.284 1568.498 0.01311
-0.02897 0.01302 0.04940 0.05873 0.01487 1.071 0.296 1568.535 0.01314
-0.02902 0.01305 0.04949 0.05883 0.01593 0.898 0.279 1568.572 0.01316
-0.02907 0.01307 0.04958 0.05894 0.01699 0.942 0.284 1568.608 0.01319
-0.02913 0.01310 0.04967 0.05905 0.01805 0.516 0.236 1568.645 0.01321
-0.02918 0.01312 0.04976 0.05916 0.01911 1.376 0.323 1568.682 0.01323
-0.02923 0.01314 0.04985 0.05926 0.02018 1.034 0.293 1568.719 0.01326
-0.02928 0.01317 0.04994 0.05937 0.02124 0.733 0.263 1568.755 0.01328
-0.02934 0.01319 0.05003 0.05948 0.02230 0.903 0.281 1568.792 0.01330
-0.02939 0.01321 0.05012 0.05958 0.02336 1.246 0.313 1568.829 0.01333
-0.02944 0.01324 0.05021 0.05969 0.02443 0.776 0.268 1568.865 0.01335
-0.02949 0.01326 0.05030 0.05980 0.02549 0.905 0.280 1568.902 0.01338
-0.02955 0.01329 0.05039 0.05991 0.02655 0.989 0.288 1568.939 0.01340
-0.02960 0.01331 0.05048 0.06001 0.02761 1.120 0.300 1568.976 0.01342
-0.02965 0.01333 0.05057 0.06012 0.02868 1.079 0.298 1569.012 0.01345
-0.02971 0.01336 0.05066 0.06023 0.02974 1.251 0.314 1569.049 0.01347
-0.02976 0.01338 0.05075 0.06033 0.03080 0.692 0.259 1569.086 0.01349
-0.02981 0.01340 0.05084 0.06044 0.03186 0.956 0.286 1569.122 0.01352
-0.02986 0.01343 0.05093 0.06055 0.03293 0.666 0.254 1569.159 0.01354
-0.02992 0.01345 0.05102 0.06066 0.03399 0.549 0.241 1569.196 0.01356
-0.02997 0.01348 0.05111 0.06076 0.03505 0.975 0.285 1569.233 0.01359
-0.03002 0.01350 0.05120 0.06087 0.03611 0.652 0.248 1569.269 0.01361
-0.03008 0.01352 0.05129 0.06098 0.03718 0.913 0.283 1569.306 0.01364
-0.03013 0.01355 0.05138 0.06108 0.03824 0.843 0.271 1569.343 0.01366
-0.03018 0.01357 0.05147 0.06119 0.03930 1.029 0.291 1569.380 0.01368
-0.03023 0.01359 0.05156 0.06130 0.04037 1.090 0.296 1569.416 0.01371
-0.03029 0.01362 0.05165 0.06141 0.04143 0.621 0.249 1569.453 0.01373
-0.03034 0.01364 0.05174 0.06151 0.04249 1.305 0.320 1569.490 0.01375
-0.03039 0.01367 0.05183 0.06162 0.04355 1.034 0.288 1569.526 0.01378
-0.03045 0.01369 0.05192 0.06173 0.04462 0.962 0.283 1569.563 0.01380
-0.03050 0.01371 0.05201 0.06183 0.04568 1.069 0.293 1569.600 0.01383
-0.03055 0.01374 0.05210 0.06194 0.04674 1.225 0.313 1569.637 0.01385
-0.03060 0.01376 0.05219 0.06205 0.04781 0.901 0.279 1569.673 0.01387
-0.03066 0.01378 0.05228 0.06216 0.04887 1.311 0.321 1569.710 0.01390
-0.03071 0.01381 0.05237 0.06226 0.04993 1.098 0.302 1569.747 0.01392
-0.03076 0.01383 0.05246 0.06237 0.05100 1.140 0.305 1569.783 0.01394
-0.03082 0.01386 0.05255 0.06248 0.05206 0.531 0.237 1569.820 0.01397
-0.03087 0.01388 0.05264 0.06258 0.05312 0.793 0.271 1569.857 0.01399
-0.03092 0.01390 0.05273 0.06269 0.05419 0.443 0.229 1569.894 0.01402
-0.03097 0.01393 0.05282 0.06280 0.05525 0.616 0.252 1569.930 0.01404
-0.03103 0.01395 0.05291 0.06291 0.05631 0.835 0.277 1569.967 0.01406
-0.03108 0.01397 0.05300 0.06301 0.05738 0.792 0.272 1570.004 0.01409
-0.03113 0.01400 0.05309 0.06312 0.05844 0.617 0.252 1570.040 0.01411
-0.03119 0.01402 0.05318 0.06323 0.05951 0.310 0.210 1570.077 0.01413
-0.03124 0.01405 0.05327 0.06333 0.06057 0.616 0.253 1570.114 0.01416
-0.03129 0.01407 0.05336 0.06344 0.06163 0.487 0.237 1570.151 0.01418
-0.03135 0.01409 0.05345 0.06355 0.06270 0.399 0.225 1570.187 0.01421
-0.03140 0.01412 0.05354 0.06366 0.06376 0.572 0.247 1570.224 0.01423
-0.03145 0.01414 0.05363 0.06376 0.06482 0.266 0.204 1570.261 0.01425
-0.03150 0.01417 0.05373 0.06387 0.06589 0.572 0.247 1570.298 0.01428
-0.03156 0.01419 0.05382 0.06398 0.06695 0.530 0.242 1570.334 0.01430
-0.03161 0.01421 0.05391 0.06409 0.06802 0.310 0.212 1570.371 0.01432
-0.03166 0.01424 0.05400 0.06419 0.06908 0.663 0.258 1570.408 0.01435
-0.03172 0.01426 0.05409 0.06430 0.07014 0.663 0.259 1570.444 0.01437
-0.03177 0.01428 0.05418 0.06441 0.07121 0.883 0.284 1570.481 0.01439
-0.03182 0.01431 0.05427 0.06451 0.07227 0.621 0.255 1570.518 0.01442
-0.03187 0.01433 0.05436 0.06462 0.07334 0.931 0.288 1570.555 0.01444
-0.03193 0.01436 0.05445 0.06473 0.07440 0.798 0.275 1570.591 0.01447
-0.03198 0.01438 0.05454 0.06484 0.07546 0.621 0.254 1570.628 0.01449
-0.03203 0.01440 0.05463 0.06494 0.07653 1.062 0.302 1570.665 0.01451
-0.03209 0.01443 0.05472 0.06505 0.07759 0.664 0.260 1570.701 0.01454
-0.03214 0.01445 0.05481 0.06516 0.07866 1.018 0.298 1570.738 0.01456
-0.03219 0.01447 0.05490 0.06527 0.07972 1.328 0.327 1570.775 0.01458
-0.03224 0.01450 0.05499 0.06537 0.08079 0.797 0.276 1570.812 0.01461
-0.03230 0.01452 0.05508 0.06548 0.08185 0.663 0.261 1570.848 0.01463
-0.03235 0.01455 0.05517 0.06559 0.08291 0.930 0.290 1570.885 0.01466
-0.03240 0.01457 0.05526 0.06569 0.08398 0.798 0.276 1570.922 0.01468
-0.03246 0.01459 0.05535 0.06580 0.08504 0.843 0.281 1570.958 0.01470
-0.03251 0.01462 0.05544 0.06591 0.08611 0.800 0.276 1570.995 0.01473
-0.03256 0.01464 0.05553 0.06602 0.08717 0.487 0.239 1571.032 0.01475
-0.03262 0.01466 0.05562 0.06612 0.08824 0.755 0.272 1571.069 0.01477
-0.03267 0.01469 0.05571 0.06623 0.08930 0.888 0.287 1571.105 0.01480
-0.03272 0.01471 0.05580 0.06634 0.09037 0.977 0.296 1571.142 0.01482
-0.03277 0.01474 0.05589 0.06645 0.09143 1.067 0.304 1571.179 0.01485
-0.03283 0.01476 0.05598 0.06655 0.09250 0.935 0.292 1571.216 0.01487
-0.03288 0.01478 0.05607 0.06666 0.09356 0.580 0.252 1571.252 0.01489
-0.03293 0.01481 0.05616 0.06677 0.09463 0.760 0.273 1571.289 0.01492
-0.03299 0.01483 0.05625 0.06688 0.09569 0.672 0.263 1571.326 0.01494
-0.03304 0.01486 0.05634 0.06698 0.09676 0.984 0.297 1571.362 0.01496
-0.03309 0.01488 0.05643 0.06709 0.09782 0.895 0.288 1571.399 0.01499
-0.03314 0.01490 0.05652 0.06720 0.09889 1.256 0.322 1571.436 0.01501
-0.03320 0.01493 0.05661 0.06731 0.09995 1.079 0.306 1571.473 0.01504
-0.03325 0.01495 0.05670 0.06741 0.10102 1.305 0.327 1571.509 0.01506
-0.03330 0.01497 0.05679 0.06752 0.10208 1.037 0.302 1571.546 0.01508
-0.03336 0.01500 0.05688 0.06763 0.10315 1.037 0.303 1571.583 0.01511
-0.03341 0.01502 0.05697 0.06773 0.10421 0.994 0.298 1571.619 0.01513
-0.03346 0.01505 0.05707 0.06784 0.10528 0.771 0.275 1571.656 0.01515
-0.03352 0.01507 0.05716 0.06795 0.10634 0.816 0.279 1571.693 0.01518
-0.03357 0.01509 0.05725 0.06806 0.10741 1.041 0.303 1571.730 0.01520
-0.03362 0.01512 0.05734 0.06816 0.10847 0.906 0.289 1571.766 0.01523
-0.03367 0.01514 0.05743 0.06827 0.10954 0.858 0.283 1571.803 0.01525
-0.03373 0.01516 0.05752 0.06838 0.11060 1.266 0.324 1571.840 0.01527
-0.03378 0.01519 0.05761 0.06849 0.11167 0.727 0.271 1571.877 0.01530
-0.03383 0.01521 0.05770 0.06859 0.11273 0.999 0.299 1571.913 0.01532
-0.03389 0.01524 0.05779 0.06870 0.11380 1.000 0.298 1571.950 0.01534
-0.03394 0.01526 0.05788 0.06881 0.11486 0.958 0.295 1571.987 0.01537
-0.03399 0.01528 0.05797 0.06892 0.11593 1.141 0.313 1572.023 0.01539
-0.03405 0.01531 0.05806 0.06902 0.11700 0.871 0.286 1572.060 0.01541
-0.03410 0.01533 0.05815 0.06913 0.11806 0.962 0.296 1572.097 0.01544
-0.03415 0.01536 0.05824 0.06924 0.11913 1.144 0.314 1572.134 0.01546
-0.03420 0.01538 0.05833 0.06935 0.12019 0.971 0.296 1572.170 0.01549
-0.03426 0.01540 0.05842 0.06945 0.12126 1.369 0.330 1572.207 0.01551
-0.03431 0.01543 0.05851 0.06956 0.12232 1.125 0.310 1572.244 0.01553
-0.03436 0.01545 0.05860 0.06967 0.12339 1.195 0.317 1572.280 0.01556
-0.03442 0.01547 0.05869 0.06978 0.12446 0.864 0.283 1572.317 0.01558
-0.03447 0.01550 0.05878 0.06988 0.12552 0.629 0.256 1572.354 0.01560
-0.03452 0.01552 0.05887 0.06999 0.12659 0.834 0.283 1572.391 0.01563
-0.03458 0.01555 0.05896 0.07010 0.12765 0.896 0.283 1572.427 0.01565
-0.03463 0.01557 0.05905 0.07021 0.12872 0.910 0.292 1572.464 0.01568
-0.03468 0.01559 0.05914 0.07031 0.12979 0.926 0.288 1572.501 0.01570
-0.03473 0.01562 0.05923 0.07042 0.13085 1.059 0.302 1572.537 0.01572
-0.03479 0.01564 0.05932 0.07053 0.13192 1.003 0.298 1572.574 0.01575
-0.03484 0.01567 0.05941 0.07064 0.13299 1.017 0.301 1572.611 0.01577
-0.03489 0.01569 0.05951 0.07074 0.13405 0.731 0.269 1572.648 0.01579
-0.03495 0.01571 0.05960 0.07085 0.13512 1.298 0.329 1572.684 0.01582
-0.03500 0.01574 0.05969 0.07096 0.13618 0.766 0.274 1572.721 0.01584
-0.03505 0.01576 0.05978 0.07107 0.13725 1.008 0.299 1572.758 0.01587
-0.03511 0.01578 0.05987 0.07117 0.13832 0.864 0.284 1572.795 0.01589
-0.03516 0.01581 0.05996 0.07128 0.13938 0.712 0.270 1572.831 0.01591
-0.03521 0.01583 0.06005 0.07139 0.14045 1.392 0.338 1572.868 0.01594
-0.03526 0.01586 0.06014 0.07150 0.14152 0.979 0.300 1572.905 0.01596
-0.03532 0.01588 0.06023 0.07160 0.14258 1.163 0.318 1572.941 0.01598
-0.03537 0.01590 0.06032 0.07171 0.14365 1.072 0.310 1572.978 0.01601
-0.03542 0.01593 0.06041 0.07182 0.14472 0.980 0.301 1573.015 0.01603
-0.03548 0.01595 0.06050 0.07193 0.14578 1.073 0.310 1573.052 0.01606
-0.03553 0.01598 0.06059 0.07203 0.14685 0.565 0.254 1573.088 0.01608
-0.03558 0.01600 0.06068 0.07214 0.14792 0.611 0.261 1573.125 0.01610
-0.03564 0.01602 0.06077 0.07225 0.14898 1.164 0.320 1573.162 0.01613
-0.03569 0.01605 0.06086 0.07236 0.15005 0.886 0.292 1573.198 0.01615
-0.03574 0.01607 0.06095 0.07246 0.15112 0.609 0.259 1573.235 0.01617
-0.03579 0.01609 0.06104 0.07257 0.15218 0.886 0.292 1573.272 0.01620
-0.03585 0.01612 0.06113 0.07268 0.15325 0.748 0.278 1573.309 0.01622
-0.03590 0.01614 0.06122 0.07279 0.15432 1.025 0.307 1573.345 0.01624
-0.03595 0.01617 0.06131 0.07289 0.15538 1.117 0.316 1573.382 0.01627
-0.03601 0.01619 0.06140 0.07300 0.15645 0.885 0.293 1573.419 0.01629
-0.03606 0.01621 0.06150 0.07311 0.15752 0.934 0.298 1573.455 0.01632
-0.03611 0.01624 0.06159 0.07322 0.15859 0.470 0.244 1573.492 0.01634
-0.03617 0.01626 0.06168 0.07332 0.15965 0.980 0.302 1573.529 0.01636
-0.03622 0.01629 0.06177 0.07343 0.16072 1.024 0.307 1573.566 0.01639
-0.03627 0.01631 0.06186 0.07354 0.16179 0.883 0.294 1573.602 0.01641
-0.03633 0.01633 0.06195 0.07365 0.16285 1.163 0.322 1573.639 0.01643
-0.03638 0.01636 0.06204 0.07375 0.16392 1.256 0.330 1573.676 0.01646
-0.03643 0.01638 0.06213 0.07386 0.16499 0.789 0.285 1573.713 0.01648
-0.03648 0.01640 0.06222 0.07397 0.16606 0.746 0.280 1573.749 0.01651
-0.03654 0.01643 0.06231 0.07408 0.16712 1.213 0.328 1573.786 0.01653
-0.03659 0.01645 0.06240 0.07418 0.16819 1.027 0.310 1573.823 0.01655
-0.03664 0.01648 0.06249 0.07429 0.16926 1.074 0.314 1573.859 0.01658
-0.03670 0.01650 0.06258 0.07440 0.17033 1.075 0.315 1573.896 0.01660
-0.03675 0.01652 0.06267 0.07451 0.17139 0.748 0.281 1573.933 0.01662
-0.03680 0.01655 0.06276 0.07462 0.17246 0.843 0.291 1573.970 0.01665
-0.03686 0.01657 0.06285 0.07472 0.17353 0.798 0.286 1574.006 0.01667
-0.03691 0.01660 0.06294 0.07483 0.17460 1.032 0.311 1574.043 0.01670
-0.03696 0.01662 0.06303 0.07494 0.17566 1.221 0.329 1574.080 0.01672
-0.03702 0.01664 0.06312 0.07505 0.17673 0.658 0.271 1574.116 0.01674
-0.03707 0.01667 0.06322 0.07515 0.17780 1.505 0.354 1574.153 0.01677
-0.03712 0.01669 0.06331 0.07526 0.17887 0.847 0.292 1574.190 0.01679
-0.03717 0.01672 0.06340 0.07537 0.17993 1.223 0.330 1574.227 0.01681
-0.03723 0.01674 0.06349 0.07548 0.18100 1.270 0.334 1574.263 0.01684
-0.03728 0.01676 0.06358 0.07558 0.18207 0.847 0.291 1574.300 0.01686
-0.03733 0.01679 0.06367 0.07569 0.18314 1.224 0.331 1574.337 0.01689
-0.03739 0.01681 0.06376 0.07580 0.18421 0.754 0.282 1574.374 0.01691
-0.03744 0.01683 0.06385 0.07591 0.18527 0.566 0.260 1574.410 0.01693
-0.03749 0.01686 0.06394 0.07601 0.18634 0.847 0.294 1574.447 0.01696
-0.03755 0.01688 0.06403 0.07612 0.18741 1.415 0.348 1574.484 0.01698
-0.03760 0.01691 0.06412 0.07623 0.18848 0.943 0.303 1574.520 0.01700
-0.03765 0.01693 0.06421 0.07634 0.18955 0.851 0.295 1574.557 0.01703
-0.03771 0.01695 0.06430 0.07645 0.19062 1.230 0.330 1574.594 0.01705
-0.03776 0.01698 0.06439 0.07655 0.19168 1.279 0.336 1574.631 0.01708
-0.03781 0.01700 0.06448 0.07666 0.19275 1.280 0.335 1574.667 0.01710
-0.03787 0.01703 0.06457 0.07677 0.19382 1.567 0.361 1574.704 0.01712
-0.03792 0.01705 0.06466 0.07688 0.19489 1.045 0.315 1574.741 0.01715
-0.03797 0.01707 0.06475 0.07698 0.19596 0.713 0.279 1574.777 0.01717
-0.03802 0.01710 0.06485 0.07709 0.19703 1.049 0.316 1574.814 0.01719
-0.03808 0.01712 0.06494 0.07720 0.19809 0.668 0.274 1574.851 0.01722
-0.03813 0.01714 0.06503 0.07731 0.19916 1.145 0.325 1574.888 0.01724
-0.03818 0.01717 0.06512 0.07741 0.20023 1.194 0.328 1574.924 0.01726
-0.03824 0.01719 0.06521 0.07752 0.20130 1.528 0.359 1574.961 0.01729
-0.03829 0.01722 0.06530 0.07763 0.20237 1.147 0.325 1574.998 0.01731
-0.03834 0.01724 0.06539 0.07774 0.20344 0.717 0.281 1575.034 0.01734
-0.03840 0.01726 0.06548 0.07785 0.20451 1.052 0.317 1575.071 0.01736
-0.03845 0.01729 0.06557 0.07795 0.20557 1.099 0.322 1575.108 0.01738
-0.03850 0.01731 0.06566 0.07806 0.20664 0.811 0.292 1575.145 0.01741
-0.03856 0.01734 0.06575 0.07817 0.20771 1.002 0.313 1575.181 0.01743
-0.03861 0.01736 0.06584 0.07828 0.20878 1.173 0.327 1575.218 0.01745
-0.03866 0.01738 0.06593 0.07838 0.20985 0.976 0.309 1575.255 0.01748
-0.03872 0.01741 0.06602 0.07849 0.21092 0.292 0.223 1575.292 0.01750
-0.03877 0.01743 0.06611 0.07860 0.21199 0.886 0.298 1575.328 0.01753
-0.03882 0.01746 0.06620 0.07871 0.21306 0.694 0.277 1575.365 0.01755
-0.03887 0.01748 0.06630 0.07882 0.21413 0.792 0.288 1575.402 0.01757
-0.03893 0.01750 0.06639 0.07892 0.21519 0.891 0.299 1575.438 0.01760
-0.03898 0.01753 0.06648 0.07903 0.21626 0.888 0.299 1575.475 0.01762
-0.03903 0.01755 0.06657 0.07914 0.21733 0.958 0.305 1575.512 0.01764
-0.03909 0.01758 0.06666 0.07925 0.21840 0.795 0.289 1575.549 0.01767
-0.03914 0.01760 0.06675 0.07935 0.21947 1.059 0.315 1575.585 0.01769
-0.03919 0.01762 0.06684 0.07946 0.22054 0.945 0.304 1575.622 0.01772
-0.03925 0.01765 0.06693 0.07957 0.22161 1.067 0.316 1575.659 0.01774
-0.03930 0.01767 0.06702 0.07968 0.22268 0.979 0.305 1575.695 0.01776
-0.03935 0.01769 0.06711 0.07979 0.22375 0.952 0.306 1575.732 0.01779
-0.03941 0.01772 0.06720 0.07989 0.22482 1.337 0.344 1575.769 0.01781
-0.03946 0.01774 0.06729 0.08000 0.22589 0.944 0.306 1575.806 0.01783
-0.03951 0.01777 0.06738 0.08011 0.22696 0.981 0.312 1575.842 0.01786
-0.03957 0.01779 0.06747 0.08022 0.22803 1.269 0.340 1575.879 0.01788
-0.03962 0.01781 0.06757 0.08032 0.22910 0.825 0.296 1575.916 0.01791
-0.03967 0.01784 0.06766 0.08043 0.23017 0.922 0.307 1575.952 0.01793
-0.03973 0.01786 0.06775 0.08054 0.23123 0.826 0.296 1575.989 0.01795
-0.03978 0.01789 0.06784 0.08065 0.23230 0.923 0.306 1576.026 0.01798
-0.03983 0.01791 0.06793 0.08076 0.23337 1.362 0.350 1576.063 0.01800
-0.03989 0.01793 0.06802 0.08086 0.23444 1.412 0.354 1576.099 0.01802
-0.03994 0.01796 0.06811 0.08097 0.23551 1.316 0.346 1576.136 0.01805
-0.03999 0.01798 0.06820 0.08108 0.23658 1.267 0.341 1576.173 0.01807
-0.04004 0.01801 0.06829 0.08119 0.23765 0.780 0.293 1576.210 0.01809
-0.04010 0.01803 0.06838 0.08130 0.23872 0.829 0.298 1576.246 0.01812
-0.04015 0.01805 0.06847 0.08140 0.23979 0.976 0.314 1576.283 0.01814
-0.04020 0.01808 0.06856 0.08151 0.24086 1.319 0.348 1576.320 0.01817
-0.04026 0.01810 0.06865 0.08162 0.24193 0.783 0.292 1576.356 0.01819
-0.04031 0.01813 0.06874 0.08173 0.24300 0.491 0.257 1576.393 0.01821
-0.04036 0.01815 0.06884 0.08183 0.24407 1.179 0.334 1576.430 0.01824
-0.04042 0.01817 0.06893 0.08194 0.24514 0.786 0.294 1576.467 0.01826
-0.04047 0.01820 0.06902 0.08205 0.24621 0.984 0.316 1576.503 0.01828
-0.04052 0.01822 0.06911 0.08216 0.24728 0.934 0.310 1576.540 0.01831
-0.04058 0.01824 0.06920 0.08227 0.24835 0.836 0.295 1576.577 0.01833
-0.04063 0.01827 0.06929 0.08237 0.24942 1.082 0.326 1576.613 0.01836
-0.04068 0.01829 0.06938 0.08248 0.25049 1.229 0.340 1576.650 0.01838
-0.04074 0.01832 0.06947 0.08259 0.25156 0.638 0.278 1576.687 0.01840
-0.04079 0.01834 0.06956 0.08270 0.25264 1.181 0.336 1576.724 0.01843
-0.04084 0.01836 0.06965 0.08281 0.25371 0.935 0.312 1576.760 0.01845
-0.04090 0.01839 0.06974 0.08291 0.25478 1.132 0.332 1576.797 0.01847
-0.04095 0.01841 0.06983 0.08302 0.25585 1.429 0.360 1576.834 0.01850
-0.04100 0.01844 0.06992 0.08313 0.25692 0.887 0.308 1576.871 0.01852
-0.04106 0.01846 0.07002 0.08324 0.25799 0.840 0.301 1576.907 0.01855
-0.04111 0.01848 0.07011 0.08335 0.25906 1.187 0.338 1576.944 0.01857
-0.04116 0.01851 0.07020 0.08345 0.26013 1.238 0.342 1576.981 0.01859
-0.04122 0.01853 0.07029 0.08356 0.26120 0.993 0.318 1577.017 0.01862
-0.04127 0.01856 0.07038 0.08367 0.26227 0.994 0.319 1577.054 0.01864
-0.04132 0.01858 0.07047 0.08378 0.26334 0.995 0.319 1577.091 0.01866
-0.04138 0.01860 0.07056 0.08389 0.26441 0.744 0.291 1577.128 0.01869
-0.04143 0.01863 0.07065 0.08399 0.26548 0.794 0.297 1577.164 0.01871
-0.04148 0.01865 0.07074 0.08410 0.26655 1.242 0.344 1577.201 0.01874
-0.04154 0.01868 0.07083 0.08421 0.26762 1.244 0.344 1577.238 0.01876
-0.04159 0.01870 0.07092 0.08432 0.26870 0.842 0.304 1577.274 0.01878
-0.04164 0.01872 0.07101 0.08443 0.26977 0.894 0.310 1577.311 0.01881
-0.04170 0.01875 0.07110 0.08453 0.27084 0.744 0.293 1577.348 0.01883
-0.04175 0.01877 0.07120 0.08464 0.27191 0.896 0.310 1577.385 0.01885
-0.04180 0.01880 0.07129 0.08475 0.27298 1.195 0.341 1577.421 0.01888
-0.04185 0.01882 0.07138 0.08486 0.27405 1.394 0.358 1577.458 0.01890
-0.04191 0.01884 0.07147 0.08496 0.27512 0.997 0.322 1577.495 0.01893
-0.04196 0.01887 0.07156 0.08507 0.27619 1.098 0.332 1577.531 0.01895
-0.04201 0.01889 0.07165 0.08518 0.27726 1.398 0.360 1577.568 0.01897
-0.04207 0.01892 0.07174 0.08529 0.27834 1.046 0.327 1577.605 0.01900
-0.04212 0.01894 0.07183 0.08540 0.27941 0.746 0.293 1577.642 0.01902
-0.04217 0.01896 0.07192 0.08550 0.28048 0.644 0.280 1577.678 0.01904
-0.04223 0.01899 0.07201 0.08561 0.28155 1.097 0.333 1577.715 0.01907
-0.04228 0.01901 0.07210 0.08572 0.28262 1.000 0.323 1577.752 0.01909
-0.04233 0.01903 0.07219 0.08583 0.28369 0.852 0.307 1577.789 0.01911
-0.04239 0.01906 0.07229 0.08594 0.28476 1.205 0.343 1577.825 0.01914
-0.04244 0.01908 0.07238 0.08605 0.28583 1.257 0.349 1577.862 0.01916
-0.04249 0.01911 0.07247 0.08615 0.28691 1.057 0.328 1577.899 0.01919
-0.04255 0.01913 0.07256 0.08626 0.28798 0.804 0.301 1577.935 0.01921
-0.04260 0.01915 0.07265 0.08637 0.28905 0.854 0.307 1577.972 0.01923
-0.04265 0.01918 0.07274 0.08648 0.29012 1.411 0.363 1578.009 0.01926
-0.04271 0.01920 0.07283 0.08659 0.29119 0.805 0.303 1578.046 0.01928
-0.04276 0.01923 0.07292 0.08669 0.29226 1.664 0.385 1578.082 0.01930
-0.04281 0.01925 0.07301 0.08680 0.29334 0.854 0.309 1578.119 0.01933
-0.04287 0.01927 0.07310 0.08691 0.29441 1.108 0.336 1578.156 0.01935
-0.04292 0.01930 0.07319 0.08702 0.29548 1.009 0.326 1578.192 0.01938
-0.04297 0.01932 0.07329 0.08713 0.29655 1.113 0.335 1578.229 0.01940
-0.04303 0.01935 0.07338 0.08723 0.29762 1.077 0.331 1578.266 0.01942
-0.04308 0.01937 0.07347 0.08734 0.29870 1.043 0.326 1578.303 0.01945
-0.04313 0.01939 0.07356 0.08745 0.29977 1.191 0.341 1578.339 0.01947
-0.04319 0.01942 0.07365 0.08756 0.30084 0.989 0.321 1578.376 0.01949
-0.04324 0.01944 0.07374 0.08767 0.30191 1.425 0.365 1578.413 0.01952
