x y z dist_scaled dist_frac flux_norm sig_norm wavelength redshift
0.02064 -0.01118 0.05222 0.05726 0.00000 1.074 0.150 1231.245 0.01281
0.02068 -0.01121 0.05233 0.05737 0.00110 1.075 0.150 1231.275 0.01284
0.02072 -0.01123 0.05243 0.05748 0.00220 0.792 0.133 1231.305 0.01286
0.02076 -0.01125 0.05253 0.05759 0.00330 0.976 0.145 1231.335 0.01289
0.02080 -0.01127 0.05263 0.05770 0.00440 0.962 0.144 1231.365 0.01291
0.02084 -0.01129 0.05273 0.05781 0.00550 1.064 0.150 1231.395 0.01293
0.02088 -0.01131 0.05283 0.05792 0.00661 0.953 0.143 1231.425 0.01296
0.02092 -0.01134 0.05293 0.05803 0.00771 1.194 0.148 1231.454 0.01298
0.02096 -0.01136 0.05303 0.05814 0.00881 0.996 0.136 1231.484 0.01301
0.02100 -0.01138 0.05314 0.05826 0.00991 0.870 0.138 1231.514 0.01303
0.02104 -0.01140 0.05324 0.05837 0.01101 0.814 0.135 1231.544 0.01306
0.02108 -0.01142 0.05334 0.05848 0.01211 0.857 0.137 1231.574 0.01308
0.02112 -0.01144 0.05344 0.05859 0.01321 1.000 0.136 1231.604 0.01311
0.02116 -0.01147 0.05354 0.05870 0.01431 0.658 0.124 1231.634 0.01313
0.02120 -0.01149 0.05364 0.05881 0.01541 0.816 0.135 1231.664 0.01316
0.02124 -0.01151 0.05374 0.05892 0.01652 0.878 0.138 1231.693 0.01318
0.02128 -0.01153 0.05384 0.05903 0.01762 0.879 0.129 1231.723 0.01321
0.02132 -0.01155 0.05394 0.05914 0.01872 1.026 0.148 1231.753 0.01323
0.02136 -0.01157 0.05405 0.05925 0.01982 0.992 0.147 1231.783 0.01325
0.02140 -0.01160 0.05415 0.05936 0.02092 0.896 0.140 1231.813 0.01328
0.02144 -0.01162 0.05425 0.05948 0.02202 0.989 0.146 1231.843 0.01330
0.02148 -0.01164 0.05435 0.05959 0.02312 0.792 0.133 1231.873 0.01333
0.02152 -0.01166 0.05445 0.05970 0.02423 0.749 0.131 1231.903 0.01335
0.02156 -0.01168 0.05455 0.05981 0.02533 1.020 0.147 1231.932 0.01338
0.02160 -0.01170 0.05465 0.05992 0.02643 0.971 0.145 1231.962 0.01340
0.02164 -0.01173 0.05475 0.06003 0.02753 1.061 0.151 1231.992 0.01343
0.02168 -0.01175 0.05486 0.06014 0.02863 1.035 0.148 1232.022 0.01345
0.02172 -0.01177 0.05496 0.06025 0.02973 1.030 0.149 1232.052 0.01348
0.02176 -0.01179 0.05506 0.06036 0.03084 1.034 0.149 1232.082 0.01350
0.02180 -0.01181 0.05516 0.06047 0.03194 1.041 0.139 1232.112 0.01352
0.02184 -0.01183 0.05526 0.06059 0.03304 0.927 0.131 1232.142 0.01355
0.02188 -0.01186 0.05536 0.06070 0.03414 0.846 0.138 1232.171 0.01357
0.02192 -0.01188 0.05546 0.06081 0.03524 1.081 0.151 1232.201 0.01360
0.02196 -0.01190 0.05556 0.06092 0.03635 1.097 0.143 1232.231 0.01362
0.02200 -0.01192 0.05567 0.06103 0.03745 0.879 0.140 1232.261 0.01365
0.02204 -0.01194 0.05577 0.06114 0.03855 0.995 0.147 1232.291 0.01367
0.02208 -0.01196 0.05587 0.06125 0.03965 1.225 0.151 1232.321 0.01370
0.02212 -0.01199 0.05597 0.06136 0.04075 0.764 0.133 1232.351 0.01372
0.02216 -0.01201 0.05607 0.06147 0.04186 0.837 0.137 1232.381 0.01375
0.02220 -0.01203 0.05617 0.06159 0.04296 0.548 0.117 1232.411 0.01377
0.02224 -0.01205 0.05627 0.06170 0.04406 0.694 0.128 1232.440 0.01380
0.02228 -0.01207 0.05638 0.06181 0.04516 0.564 0.118 1232.470 0.01382
0.02232 -0.01209 0.05648 0.06192 0.04627 0.389 0.103 1232.500 0.01384
0.02236 -0.01212 0.05658 0.06203 0.04737 0.505 0.114 1232.530 0.01387
0.02240 -0.01214 0.05668 0.06214 0.04847 0.461 0.110 1232.560 0.01389
0.02244 -0.01216 0.05678 0.06225 0.04957 0.302 0.095 1232.590 0.01392
0.02248 -0.01218 0.05688 0.06236 0.05068 0.752 0.132 1232.620 0.01394
0.02252 -0.01220 0.05698 0.06247 0.05178 0.781 0.134 1232.650 0.01397
0.02256 -0.01222 0.05708 0.06258 0.05288 0.703 0.135 1232.679 0.01399
0.02260 -0.01225 0.05719 0.06270 0.05398 0.547 0.123 1232.709 0.01402
0.02264 -0.01227 0.05729 0.06281 0.05509 0.739 0.131 1232.739 0.01404
0.02268 -0.01229 0.05739 0.06292 0.05619 0.580 0.120 1232.769 0.01407
0.02272 -0.01231 0.05749 0.06303 0.05729 0.872 0.141 1232.799 0.01409
0.02276 -0.01233 0.05759 0.06314 0.05840 0.757 0.133 1232.829 0.01411
0.02280 -0.01235 0.05769 0.06325 0.05950 0.684 0.128 1232.859 0.01414
0.02284 -0.01238 0.05779 0.06336 0.06060 0.670 0.127 1232.889 0.01416
0.02288 -0.01240 0.05790 0.06347 0.06170 0.584 0.120 1232.918 0.01419
0.02292 -0.01242 0.05800 0.06358 0.06281 0.629 0.124 1232.948 0.01421
0.02296 -0.01244 0.05810 0.06370 0.06391 0.701 0.129 1232.978 0.01424
0.02300 -0.01246 0.05820 0.06381 0.06501 0.703 0.129 1233.008 0.01426
0.02304 -0.01249 0.05830 0.06392 0.06612 0.775 0.135 1233.038 0.01429
0.02308 -0.01251 0.05840 0.06403 0.06722 0.747 0.133 1233.068 0.01431
0.02312 -0.01253 0.05850 0.06414 0.06832 0.806 0.137 1233.098 0.01434
0.02316 -0.01255 0.05860 0.06425 0.06943 0.880 0.142 1233.128 0.01436
0.02320 -0.01257 0.05871 0.06436 0.07053 0.880 0.142 1233.157 0.01439
0.02324 -0.01259 0.05881 0.06447 0.07163 0.838 0.139 1233.187 0.01441
0.02328 -0.01262 0.05891 0.06459 0.07274 0.809 0.137 1233.217 0.01443
0.02332 -0.01264 0.05901 0.06470 0.07384 0.604 0.122 1233.247 0.01446
0.02336 -0.01266 0.05911 0.06481 0.07494 0.855 0.140 1233.277 0.01448
0.02340 -0.01268 0.05921 0.06492 0.07605 0.663 0.127 1233.307 0.01451
0.02344 -0.01270 0.05931 0.06503 0.07715 0.605 0.123 1233.337 0.01453
0.02348 -0.01272 0.05942 0.06514 0.07825 0.633 0.125 1233.367 0.01456
0.02352 -0.01275 0.05952 0.06525 0.07936 0.560 0.119 1233.397 0.01458
0.02356 -0.01277 0.05962 0.06536 0.08046 0.515 0.116 1233.426 0.01461
0.02360 -0.01279 0.05972 0.06547 0.08156 0.471 0.112 1233.456 0.01463
0.02364 -0.01281 0.05982 0.06559 0.08267 0.606 0.123 1233.486 0.01466
0.02368 -0.01283 0.05992 0.06570 0.08377 0.828 0.139 1233.516 0.01468
0.02372 -0.01285 0.06002 0.06581 0.08488 0.696 0.130 1233.546 0.01470
0.02376 -0.01288 0.06013 0.06592 0.08598 0.771 0.135 1233.576 0.01473
0.02380 -0.01290 0.06023 0.06603 0.08708 0.818 0.138 1233.606 0.01475
0.02384 -0.01292 0.06033 0.06614 0.08819 0.893 0.132 1233.636 0.01478
0.02388 -0.01294 0.06043 0.06625 0.08929 0.850 0.140 1233.665 0.01480
0.02392 -0.01296 0.06053 0.06636 0.09040 1.178 0.151 1233.695 0.01483
0.02396 -0.01298 0.06063 0.06648 0.09150 1.089 0.155 1233.725 0.01485
0.02400 -0.01301 0.06073 0.06659 0.09260 1.060 0.154 1233.755 0.01488
0.02404 -0.01303 0.06084 0.06670 0.09371 1.016 0.151 1233.785 0.01490
0.02408 -0.01305 0.06094 0.06681 0.09481 1.031 0.152 1233.815 0.01493
0.02412 -0.01307 0.06104 0.06692 0.09592 1.077 0.155 1233.845 0.01495
0.02416 -0.01309 0.06114 0.06703 0.09702 1.033 0.152 1233.875 0.01497
0.02420 -0.01311 0.06124 0.06714 0.09813 0.960 0.148 1233.904 0.01500
0.02424 -0.01314 0.06134 0.06725 0.09923 0.884 0.143 1233.934 0.01502
0.02428 -0.01316 0.06144 0.06737 0.10033 1.018 0.152 1233.964 0.01505
0.02432 -0.01318 0.06155 0.06748 0.10144 0.765 0.135 1233.994 0.01507
0.02436 -0.01320 0.06165 0.06759 0.10254 0.841 0.140 1234.024 0.01510
0.02440 -0.01322 0.06175 0.06770 0.10365 0.497 0.115 1234.054 0.01512
0.02444 -0.01325 0.06185 0.06781 0.10475 0.903 0.145 1234.084 0.01515
0.02448 -0.01327 0.06195 0.06792 0.10586 0.853 0.141 1234.114 0.01517
0.02452 -0.01329 0.06205 0.06803 0.10696 0.599 0.124 1234.143 0.01520
0.02456 -0.01331 0.06216 0.06814 0.10807 0.655 0.127 1234.173 0.01522
0.02460 -0.01333 0.06226 0.06826 0.10917 0.647 0.127 1234.203 0.01525
0.02464 -0.01335 0.06236 0.06837 0.11028 0.389 0.105 1234.233 0.01527
0.02468 -0.01338 0.06246 0.06848 0.11138 0.475 0.114 1234.263 0.01529
0.02472 -0.01340 0.06256 0.06859 0.11248 0.845 0.141 1234.293 0.01532
0.02476 -0.01342 0.06266 0.06870 0.11359 0.854 0.141 1234.323 0.01534
0.02480 -0.01344 0.06276 0.06881 0.11469 0.756 0.136 1234.353 0.01537
0.02484 -0.01346 0.06287 0.06892 0.11580 0.639 0.127 1234.383 0.01539
0.02488 -0.01348 0.06297 0.06904 0.11690 1.012 0.142 1234.412 0.01542
0.02492 -0.01351 0.06307 0.06915 0.11801 0.752 0.136 1234.442 0.01544
0.02496 -0.01353 0.06317 0.06926 0.11911 0.779 0.137 1234.472 0.01547
0.02500 -0.01355 0.06327 0.06937 0.12022 0.730 0.134 1234.502 0.01549
0.02504 -0.01357 0.06337 0.06948 0.12132 0.760 0.136 1234.532 0.01552
0.02508 -0.01359 0.06348 0.06959 0.12243 1.095 0.157 1234.562 0.01554
0.02512 -0.01362 0.06358 0.06970 0.12354 0.989 0.151 1234.592 0.01556
0.02516 -0.01364 0.06368 0.06981 0.12464 0.730 0.133 1234.622 0.01559
0.02520 -0.01366 0.06378 0.06993 0.12575 0.832 0.141 1234.651 0.01561
0.02524 -0.01368 0.06388 0.07004 0.12685 0.890 0.145 1234.681 0.01564
0.02528 -0.01370 0.06398 0.07015 0.12796 0.768 0.137 1234.711 0.01566
0.02532 -0.01372 0.06408 0.07026 0.12906 0.754 0.136 1234.741 0.01569
0.02536 -0.01375 0.06419 0.07037 0.13017 0.785 0.138 1234.771 0.01571
0.02540 -0.01377 0.06429 0.07048 0.13127 0.708 0.133 1234.801 0.01574
0.02544 -0.01379 0.06439 0.07059 0.13238 0.907 0.146 1234.831 0.01576
0.02548 -0.01381 0.06449 0.07071 0.13348 1.046 0.155 1234.861 0.01579
0.02552 -0.01383 0.06459 0.07082 0.13459 1.184 0.153 1234.890 0.01581
0.02556 -0.01385 0.06469 0.07093 0.13570 0.956 0.149 1234.920 0.01584
0.02560 -0.01388 0.06480 0.07104 0.13680 1.142 0.161 1234.950 0.01586
0.02564 -0.01390 0.06490 0.07115 0.13791 1.204 0.164 1234.980 0.01588
0.02568 -0.01392 0.06500 0.07126 0.13901 1.144 0.161 1235.010 0.01591
0.02572 -0.01394 0.06510 0.07137 0.14012 1.115 0.160 1235.040 0.01593
0.02576 -0.01396 0.06520 0.07149 0.14122 1.286 0.160 1235.070 0.01596
0.02580 -0.01398 0.06530 0.07160 0.14233 1.088 0.148 1235.100 0.01598
0.02584 -0.01401 0.06541 0.07171 0.14344 1.134 0.161 1235.129 0.01601
0.02589 -0.01403 0.06551 0.07182 0.14454 1.057 0.156 1235.159 0.01603
0.02593 -0.01405 0.06561 0.07193 0.14565 0.980 0.151 1235.189 0.01606
0.02597 -0.01407 0.06571 0.07204 0.14675 0.795 0.140 1235.219 0.01608
0.02601 -0.01409 0.06581 0.07215 0.14786 1.119 0.150 1235.249 0.01611
0.02605 -0.01412 0.06591 0.07227 0.14897 1.026 0.155 1235.279 0.01613
0.02609 -0.01414 0.06602 0.07238 0.15007 1.012 0.154 1235.309 0.01615
0.02613 -0.01416 0.06612 0.07249 0.15118 0.999 0.153 1235.339 0.01618
0.02617 -0.01418 0.06622 0.07260 0.15228 1.078 0.158 1235.369 0.01620
0.02621 -0.01420 0.06632 0.07271 0.15339 1.140 0.162 1235.398 0.01623
0.02625 -0.01422 0.06642 0.07282 0.15450 0.969 0.152 1235.428 0.01625
0.02629 -0.01425 0.06652 0.07293 0.15560 1.141 0.162 1235.458 0.01628
0.02633 -0.01427 0.06663 0.07305 0.15671 1.078 0.159 1235.488 0.01630
0.02637 -0.01429 0.06673 0.07316 0.15782 1.093 0.160 1235.518 0.01633
0.02641 -0.01431 0.06683 0.07327 0.15892 1.140 0.152 1235.548 0.01635
0.02645 -0.01433 0.06693 0.07338 0.16003 1.048 0.157 1235.578 0.01638
0.02649 -0.01435 0.06703 0.07349 0.16114 1.017 0.156 1235.608 0.01640
0.02653 -0.01438 0.06713 0.07360 0.16224 1.142 0.163 1235.637 0.01643
0.02657 -0.01440 0.06724 0.07371 0.16335 1.190 0.166 1235.667 0.01645
0.02661 -0.01442 0.06734 0.07383 0.16446 0.877 0.147 1235.697 0.01647
0.02665 -0.01444 0.06744 0.07394 0.16556 1.065 0.159 1235.727 0.01650
0.02669 -0.01446 0.06754 0.07405 0.16667 0.876 0.147 1235.757 0.01652
0.02673 -0.01449 0.06764 0.07416 0.16778 0.941 0.151 1235.787 0.01655
0.02677 -0.01451 0.06774 0.07427 0.16888 1.019 0.156 1235.817 0.01657
0.02681 -0.01453 0.06785 0.07438 0.16999 0.895 0.148 1235.847 0.01660
0.02685 -0.01455 0.06795 0.07450 0.17110 1.100 0.161 1235.876 0.01662
0.02689 -0.01457 0.06805 0.07461 0.17220 1.023 0.157 1235.906 0.01665
0.02693 -0.01459 0.06815 0.07472 0.17331 1.276 0.162 1235.936 0.01667
0.02697 -0.01462 0.06825 0.07483 0.17442 0.960 0.153 1235.966 0.01670
0.02701 -0.01464 0.06835 0.07494 0.17553 0.993 0.155 1235.996 0.01672
0.02705 -0.01466 0.06846 0.07505 0.17663 1.261 0.161 1236.026 0.01674
0.02709 -0.01468 0.06856 0.07516 0.17774 1.197 0.168 1236.056 0.01677
0.02713 -0.01470 0.06866 0.07528 0.17885 1.118 0.163 1236.086 0.01679
0.02717 -0.01473 0.06876 0.07539 0.17995 1.246 0.160 1236.115 0.01682
0.02721 -0.01475 0.06886 0.07550 0.18106 1.278 0.162 1236.145 0.01684
0.02725 -0.01477 0.06897 0.07561 0.18217 1.139 0.164 1236.175 0.01687
0.02729 -0.01479 0.06907 0.07572 0.18328 0.838 0.146 1236.205 0.01689
0.02733 -0.01481 0.06917 0.07583 0.18438 0.934 0.152 1236.235 0.01692
0.02737 -0.01483 0.06927 0.07595 0.18549 1.238 0.170 1236.265 0.01694
0.02741 -0.01486 0.06937 0.07606 0.18660 1.062 0.161 1236.295 0.01697
0.02745 -0.01488 0.06947 0.07617 0.18771 1.142 0.165 1236.325 0.01699
0.02749 -0.01490 0.06958 0.07628 0.18881 1.447 0.172 1236.355 0.01701
0.02753 -0.01492 0.06968 0.07639 0.18992 1.113 0.164 1236.384 0.01704
0.02757 -0.01494 0.06978 0.07650 0.19103 0.905 0.151 1236.414 0.01706
0.02761 -0.01497 0.06988 0.07661 0.19214 1.083 0.162 1236.444 0.01709
0.02765 -0.01499 0.06998 0.07673 0.19324 0.909 0.151 1236.474 0.01711
0.02769 -0.01501 0.07008 0.07684 0.19435 0.832 0.146 1236.504 0.01714
0.02773 -0.01503 0.07019 0.07695 0.19546 0.770 0.142 1236.534 0.01716
0.02777 -0.01505 0.07029 0.07706 0.19657 0.819 0.145 1236.564 0.01719
0.02781 -0.01507 0.07039 0.07717 0.19768 0.692 0.136 1236.594 0.01721
0.02785 -0.01510 0.07049 0.07728 0.19878 0.804 0.144 1236.623 0.01724
0.02789 -0.01512 0.07059 0.07740 0.19989 0.903 0.151 1236.653 0.01726
0.02794 -0.01514 0.07070 0.07751 0.20100 1.032 0.159 1236.683 0.01729
0.02798 -0.01516 0.07080 0.07762 0.20211 1.032 0.159 1236.713 0.01731
0.02802 -0.01518 0.07090 0.07773 0.20322 0.938 0.153 1236.743 0.01733
0.02806 -0.01520 0.07100 0.07784 0.20432 1.262 0.162 1236.773 0.01736
0.02810 -0.01523 0.07110 0.07795 0.20543 1.118 0.165 1236.803 0.01738
0.02814 -0.01525 0.07120 0.07807 0.20654 1.070 0.162 1236.833 0.01741
0.02818 -0.01527 0.07131 0.07818 0.20765 1.087 0.152 1236.862 0.01743
0.02822 -0.01529 0.07141 0.07829 0.20876 1.278 0.163 1236.892 0.01746
0.02826 -0.01531 0.07151 0.07840 0.20987 1.114 0.164 1236.922 0.01748
0.02830 -0.01534 0.07161 0.07851 0.21097 1.465 0.175 1236.952 0.01751
0.02834 -0.01536 0.07171 0.07862 0.21208 1.052 0.161 1236.982 0.01753
0.02838 -0.01538 0.07182 0.07874 0.21319 1.364 0.169 1237.012 0.01756
0.02842 -0.01540 0.07192 0.07885 0.21430 1.241 0.173 1237.042 0.01758
0.02846 -0.01542 0.07202 0.07896 0.21541 1.099 0.164 1237.072 0.01760
0.02850 -0.01544 0.07212 0.07907 0.21652 1.109 0.165 1237.101 0.01763
0.02854 -0.01547 0.07222 0.07918 0.21762 1.118 0.155 1237.131 0.01765
0.02858 -0.01549 0.07233 0.07929 0.21873 1.450 0.175 1237.161 0.01768
0.02862 -0.01551 0.07243 0.07941 0.21984 1.132 0.167 1237.191 0.01770
0.02866 -0.01553 0.07253 0.07952 0.22095 1.115 0.166 1237.221 0.01773
0.02870 -0.01555 0.07263 0.07963 0.22206 1.275 0.176 1237.251 0.01775
0.02874 -0.01558 0.07273 0.07974 0.22317 1.194 0.171 1237.281 0.01778
0.02878 -0.01560 0.07283 0.07985 0.22428 0.984 0.157 1237.311 0.01780
0.02882 -0.01562 0.07294 0.07996 0.22539 1.393 0.171 1237.341 0.01783
0.02886 -0.01564 0.07304 0.08008 0.22650 1.317 0.179 1237.370 0.01785
0.02890 -0.01566 0.07314 0.08019 0.22760 1.110 0.167 1237.400 0.01788
0.02894 -0.01568 0.07324 0.08030 0.22871 1.327 0.168 1237.430 0.01790
0.02898 -0.01571 0.07334 0.08041 0.22982 1.087 0.164 1237.460 0.01792
0.02902 -0.01573 0.07345 0.08052 0.23093 1.141 0.168 1237.490 0.01795
0.02906 -0.01575 0.07355 0.08064 0.23204 1.160 0.169 1237.520 0.01797
0.02910 -0.01577 0.07365 0.08075 0.23315 1.132 0.168 1237.550 0.01800
0.02914 -0.01579 0.07375 0.08086 0.23426 1.294 0.167 1237.580 0.01802
0.02918 -0.01582 0.07385 0.08097 0.23537 0.925 0.155 1237.609 0.01805
0.02922 -0.01584 0.07396 0.08108 0.23648 0.877 0.152 1237.639 0.01807
0.02926 -0.01586 0.07406 0.08119 0.23759 0.662 0.137 1237.669 0.01810
0.02930 -0.01588 0.07416 0.08131 0.23870 0.795 0.147 1237.699 0.01812
0.02934 -0.01590 0.07426 0.08142 0.23981 0.598 0.132 1237.729 0.01815
0.02938 -0.01592 0.07436 0.08153 0.24092 0.548 0.128 1237.759 0.01817
0.02942 -0.01595 0.07447 0.08164 0.24202 0.398 0.114 1237.789 0.01819
0.02947 -0.01597 0.07457 0.08175 0.24313 0.398 0.114 1237.819 0.01822
0.02951 -0.01599 0.07467 0.08186 0.24424 0.465 0.121 1237.848 0.01824
0.02955 -0.01601 0.07477 0.08198 0.24535 0.599 0.132 1237.878 0.01827
0.02959 -0.01603 0.07487 0.08209 0.24646 0.549 0.128 1237.908 0.01829
0.02963 -0.01606 0.07498 0.08220 0.24757 0.934 0.157 1237.938 0.01832
0.02967 -0.01608 0.07508 0.08231 0.24868 0.987 0.160 1237.968 0.01834
0.02971 -0.01610 0.07518 0.08242 0.24979 1.288 0.168 1237.998 0.01837
0.02975 -0.01612 0.07528 0.08254 0.25090 0.719 0.142 1238.028 0.01839
0.02979 -0.01614 0.07538 0.08265 0.25201 0.906 0.155 1238.058 0.01842
0.02983 -0.01617 0.07549 0.08276 0.25312 1.024 0.163 1238.087 0.01844
0.02987 -0.01619 0.07559 0.08287 0.25423 0.958 0.159 1238.117 0.01847
0.02991 -0.01621 0.07569 0.08298 0.25534 1.045 0.165 1238.147 0.01849
0.02995 -0.01623 0.07579 0.08309 0.25645 0.961 0.159 1238.177 0.01851
0.02999 -0.01625 0.07589 0.08321 0.25756 1.098 0.168 1238.207 0.01854
0.03003 -0.01627 0.07600 0.08332 0.25867 1.116 0.169 1238.237 0.01856
0.03007 -0.01630 0.07610 0.08343 0.25978 1.067 0.166 1238.267 0.01859
0.03011 -0.01632 0.07620 0.08354 0.26089 0.829 0.151 1238.297 0.01861
0.03015 -0.01634 0.07630 0.08365 0.26200 0.796 0.148 1238.327 0.01864
0.03019 -0.01636 0.07640 0.08377 0.26311 0.915 0.156 1238.356 0.01866
0.03023 -0.01638 0.07651 0.08388 0.26422 0.882 0.154 1238.386 0.01869
0.03027 -0.01641 0.07661 0.08399 0.26533 0.900 0.156 1238.416 0.01871
0.03031 -0.01643 0.07671 0.08410 0.26644 1.158 0.172 1238.446 0.01874
0.03035 -0.01645 0.07681 0.08421 0.26755 0.614 0.134 1238.476 0.01876
0.03039 -0.01647 0.07691 0.08432 0.26866 1.158 0.173 1238.506 0.01878
0.03043 -0.01649 0.07702 0.08444 0.26978 1.245 0.178 1238.536 0.01881
0.03047 -0.01651 0.07712 0.08455 0.27089 1.228 0.165 1238.566 0.01883
0.03051 -0.01654 0.07722 0.08466 0.27200 1.075 0.168 1238.595 0.01886
0.03055 -0.01656 0.07732 0.08477 0.27311 1.178 0.174 1238.625 0.01888
0.03059 -0.01658 0.07742 0.08488 0.27422 1.177 0.174 1238.655 0.01891
0.03063 -0.01660 0.07753 0.08500 0.27533 0.904 0.157 1238.685 0.01893
0.03067 -0.01662 0.07763 0.08511 0.27644 1.023 0.165 1238.715 0.01896
0.03071 -0.01665 0.07773 0.08522 0.27755 0.956 0.161 1238.745 0.01898
0.03076 -0.01667 0.07783 0.08533 0.27866 1.128 0.172 1238.775 0.01901
0.03080 -0.01669 0.07793 0.08544 0.27977 1.027 0.166 1238.805 0.01903
0.03084 -0.01671 0.07804 0.08556 0.28088 1.235 0.178 1238.834 0.01905
0.03088 -0.01673 0.07814 0.08567 0.28199 0.978 0.163 1238.864 0.01908
0.03092 -0.01676 0.07824 0.08578 0.28310 0.756 0.147 1238.894 0.01910
0.03096 -0.01678 0.07834 0.08589 0.28422 0.962 0.162 1238.924 0.01913
0.03100 -0.01680 0.07844 0.08600 0.28533 0.894 0.157 1238.954 0.01915
0.03104 -0.01682 0.07855 0.08612 0.28644 0.619 0.137 1238.984 0.01918
0.03108 -0.01684 0.07865 0.08623 0.28755 1.207 0.177 1239.014 0.01920
0.03112 -0.01686 0.07875 0.08634 0.28866 0.705 0.144 1239.044 0.01923
0.03116 -0.01689 0.07885 0.08645 0.28977 0.827 0.153 1239.073 0.01925
0.03120 -0.01691 0.07896 0.08656 0.29088 0.933 0.160 1239.103 0.01928
0.03124 -0.01693 0.07906 0.08668 0.29199 0.933 0.160 1239.133 0.01930
0.03128 -0.01695 0.07916 0.08679 0.29310 1.090 0.171 1239.163 0.01933
0.03132 -0.01697 0.07926 0.08690 0.29422 0.760 0.149 1239.193 0.01935
0.03136 -0.01700 0.07936 0.08701 0.29533 0.743 0.147 1239.223 0.01937
0.03140 -0.01702 0.07947 0.08712 0.29644 0.813 0.153 1239.253 0.01940
0.03144 -0.01704 0.07957 0.08724 0.29755 0.833 0.154 1239.283 0.01942
0.03148 -0.01706 0.07967 0.08735 0.29866 0.835 0.154 1239.313 0.01945
0.03152 -0.01708 0.07977 0.08746 0.29977 0.679 0.143 1239.342 0.01947
0.03156 -0.01711 0.07987 0.08757 0.30089 0.574 0.134 1239.372 0.01950
0.03160 -0.01713 0.07998 0.08768 0.30200 0.749 0.148 1239.402 0.01952
0.03164 -0.01715 0.08008 0.08780 0.30311 0.749 0.148 1239.432 0.01955
0.03168 -0.01717 0.08018 0.08791 0.30422 0.784 0.151 1239.462 0.01957
0.03172 -0.01719 0.08028 0.08802 0.30533 0.628 0.139 1239.492 0.01960
0.03176 -0.01721 0.08039 0.08813 0.30644 0.383 0.116 1239.522 0.01962
0.03180 -0.01724 0.08049 0.08824 0.30756 0.453 0.124 1239.552 0.01964
0.03184 -0.01726 0.08059 0.08836 0.30867 0.331 0.111 1239.581 0.01967
0.03189 -0.01728 0.08069 0.08847 0.30978 0.386 0.117 1239.611 0.01969
0.03193 -0.01730 0.08079 0.08858 0.31089 0.527 0.130 1239.641 0.01972
0.03197 -0.01732 0.08090 0.08869 0.31200 0.457 0.124 1239.671 0.01974
0.03201 -0.01735 0.08100 0.08880 0.31312 0.281 0.106 1239.701 0.01977
