x y z dist_scaled dist_frac flux_norm sig_norm wavelength redshift
0.01110 -0.01165 0.05495 0.05726 0.00000 0.341 0.142 1231.245 0.01281
0.01112 -0.01167 0.05506 0.05737 0.00110 0.389 0.148 1231.275 0.01284
0.01114 -0.01169 0.05516 0.05748 0.00220 0.091 0.103 1231.305 0.01286
0.01116 -0.01172 0.05527 0.05759 0.00330 0.090 0.102 1231.335 0.01289
0.01119 -0.01174 0.05538 0.05770 0.00440 0.089 0.101 1231.365 0.01291
0.01121 -0.01176 0.05548 0.05781 0.00550 0.040 0.091 1231.395 0.01293
0.01123 -0.01178 0.05559 0.05792 0.00661 0.041 0.090 1231.425 0.01296
0.01125 -0.01181 0.05569 0.05803 0.00771 -0.008 0.077 1231.454 0.01298
0.01127 -0.01183 0.05580 0.05814 0.00881 0.040 0.090 1231.484 0.01301
0.01129 -0.01185 0.05591 0.05826 0.00991 -0.008 0.076 1231.514 0.01303
0.01131 -0.01187 0.05601 0.05837 0.01101 0.064 0.095 1231.544 0.01306
0.01134 -0.01190 0.05612 0.05848 0.01211 0.040 0.089 1231.574 0.01308
0.01136 -0.01192 0.05623 0.05859 0.01321 -0.008 0.075 1231.604 0.01311
0.01138 -0.01194 0.05633 0.05870 0.01431 0.016 0.082 1231.634 0.01313
0.01140 -0.01196 0.05644 0.05881 0.01541 0.085 0.097 1231.664 0.01316
0.01142 -0.01199 0.05655 0.05892 0.01652 -0.009 0.074 1231.693 0.01318
0.01144 -0.01201 0.05665 0.05903 0.01762 0.014 0.081 1231.723 0.01321
0.01147 -0.01203 0.05676 0.05914 0.01872 0.014 0.081 1231.753 0.01323
0.01149 -0.01206 0.05687 0.05925 0.01982 -0.010 0.074 1231.783 0.01325
0.01151 -0.01208 0.05697 0.05936 0.02092 0.036 0.086 1231.813 0.01328
0.01153 -0.01210 0.05708 0.05948 0.02202 0.012 0.080 1231.843 0.01330
0.01155 -0.01212 0.05719 0.05959 0.02312 0.126 0.103 1231.873 0.01333
0.01157 -0.01215 0.05729 0.05970 0.02423 0.211 0.115 1231.903 0.01335
0.01159 -0.01217 0.05740 0.05981 0.02533 0.281 0.124 1231.932 0.01338
0.01162 -0.01219 0.05751 0.05992 0.02643 0.404 0.140 1231.962 0.01340
0.01164 -0.01221 0.05761 0.06003 0.02753 0.710 0.168 1231.992 0.01343
0.01166 -0.01224 0.05772 0.06014 0.02863 0.710 0.169 1232.022 0.01345
0.01168 -0.01226 0.05782 0.06025 0.02973 0.738 0.170 1232.052 0.01348
0.01170 -0.01228 0.05793 0.06036 0.03084 1.171 0.203 1232.082 0.01350
0.01172 -0.01230 0.05804 0.06047 0.03194 1.065 0.195 1232.112 0.01352
0.01174 -0.01233 0.05814 0.06059 0.03304 0.811 0.175 1232.142 0.01355
0.01177 -0.01235 0.05825 0.06070 0.03414 1.136 0.199 1232.171 0.01357
0.01179 -0.01237 0.05836 0.06081 0.03524 1.050 0.192 1232.201 0.01360
0.01181 -0.01239 0.05846 0.06092 0.03635 0.874 0.178 1232.231 0.01362
0.01183 -0.01242 0.05857 0.06103 0.03745 1.106 0.197 1232.261 0.01365
0.01185 -0.01244 0.05868 0.06114 0.03855 1.010 0.190 1232.291 0.01367
0.01187 -0.01246 0.05878 0.06125 0.03965 1.202 0.203 1232.321 0.01370
0.01190 -0.01248 0.05889 0.06136 0.04075 1.004 0.189 1232.351 0.01372
0.01192 -0.01251 0.05900 0.06147 0.04186 1.065 0.192 1232.381 0.01375
0.01194 -0.01253 0.05910 0.06159 0.04296 1.062 0.192 1232.411 0.01377
0.01196 -0.01255 0.05921 0.06170 0.04406 1.144 0.197 1232.440 0.01380
0.01198 -0.01257 0.05932 0.06181 0.04516 0.692 0.163 1232.470 0.01382
0.01200 -0.01260 0.05942 0.06192 0.04627 0.966 0.184 1232.500 0.01384
0.01202 -0.01262 0.05953 0.06203 0.04737 1.069 0.191 1232.530 0.01387
0.01205 -0.01264 0.05964 0.06214 0.04847 1.108 0.193 1232.560 0.01389
0.01207 -0.01267 0.05974 0.06225 0.04957 1.020 0.187 1232.590 0.01392
0.01209 -0.01269 0.05985 0.06236 0.05068 0.912 0.179 1232.620 0.01394
0.01211 -0.01271 0.05996 0.06247 0.05178 0.847 0.174 1232.650 0.01397
0.01213 -0.01273 0.06006 0.06258 0.05288 1.242 0.200 1232.679 0.01399
0.01215 -0.01276 0.06017 0.06270 0.05398 1.113 0.192 1232.709 0.01402
0.01218 -0.01278 0.06028 0.06281 0.05509 1.090 0.190 1232.739 0.01404
0.01220 -0.01280 0.06038 0.06292 0.05619 1.108 0.191 1232.769 0.01407
0.01222 -0.01282 0.06049 0.06303 0.05729 1.126 0.191 1232.799 0.01409
0.01224 -0.01285 0.06060 0.06314 0.05840 0.959 0.180 1232.829 0.01411
0.01226 -0.01287 0.06070 0.06325 0.05950 1.038 0.185 1232.859 0.01414
0.01228 -0.01289 0.06081 0.06336 0.06060 1.098 0.189 1232.889 0.01416
0.01230 -0.01291 0.06092 0.06347 0.06170 1.074 0.187 1232.918 0.01419
0.01233 -0.01294 0.06102 0.06358 0.06281 1.335 0.203 1232.948 0.01421
0.01235 -0.01296 0.06113 0.06370 0.06391 1.027 0.183 1232.978 0.01424
0.01237 -0.01298 0.06124 0.06381 0.06501 1.267 0.198 1233.008 0.01426
0.01239 -0.01300 0.06134 0.06392 0.06612 0.920 0.175 1233.038 0.01429
0.01241 -0.01303 0.06145 0.06403 0.06722 1.099 0.187 1233.068 0.01431
0.01243 -0.01305 0.06156 0.06414 0.06832 0.694 0.157 1233.098 0.01434
0.01246 -0.01307 0.06166 0.06425 0.06943 1.013 0.181 1233.128 0.01436
0.01248 -0.01309 0.06177 0.06436 0.07053 0.931 0.174 1233.157 0.01439
0.01250 -0.01312 0.06188 0.06447 0.07163 0.948 0.175 1233.187 0.01441
0.01252 -0.01314 0.06198 0.06459 0.07274 1.085 0.185 1233.217 0.01443
0.01254 -0.01316 0.06209 0.06470 0.07384 1.321 0.199 1233.247 0.01446
0.01256 -0.01319 0.06220 0.06481 0.07494 1.000 0.178 1233.277 0.01448
0.01258 -0.01321 0.06230 0.06492 0.07605 0.998 0.178 1233.307 0.01451
0.01261 -0.01323 0.06241 0.06503 0.07715 1.034 0.180 1233.337 0.01453
0.01263 -0.01325 0.06252 0.06514 0.07825 0.993 0.177 1233.367 0.01456
0.01265 -0.01328 0.06262 0.06525 0.07936 1.147 0.187 1233.397 0.01458
0.01267 -0.01330 0.06273 0.06536 0.08046 0.949 0.173 1233.426 0.01461
0.01269 -0.01332 0.06284 0.06547 0.08156 0.928 0.172 1233.456 0.01463
0.01271 -0.01334 0.06294 0.06559 0.08267 0.731 0.157 1233.486 0.01466
0.01274 -0.01337 0.06305 0.06570 0.08377 0.905 0.169 1233.516 0.01468
0.01276 -0.01339 0.06316 0.06581 0.08488 0.845 0.165 1233.546 0.01470
0.01278 -0.01341 0.06326 0.06592 0.08598 0.997 0.175 1233.576 0.01473
0.01280 -0.01343 0.06337 0.06603 0.08708 0.840 0.164 1233.606 0.01475
0.01282 -0.01346 0.06348 0.06614 0.08819 0.877 0.167 1233.636 0.01478
0.01284 -0.01348 0.06358 0.06625 0.08929 0.990 0.174 1233.665 0.01480
0.01287 -0.01350 0.06369 0.06636 0.09040 1.121 0.183 1233.695 0.01483
0.01289 -0.01352 0.06380 0.06648 0.09150 0.966 0.172 1233.725 0.01485
0.01291 -0.01355 0.06390 0.06659 0.09260 1.193 0.187 1233.755 0.01488
0.01293 -0.01357 0.06401 0.06670 0.09371 0.961 0.171 1233.785 0.01490
0.01295 -0.01359 0.06412 0.06681 0.09481 1.072 0.179 1233.815 0.01493
0.01297 -0.01362 0.06422 0.06692 0.09592 0.880 0.165 1233.845 0.01495
0.01299 -0.01364 0.06433 0.06703 0.09702 1.104 0.180 1233.875 0.01497
0.01302 -0.01366 0.06444 0.06714 0.09813 0.951 0.170 1233.904 0.01500
0.01304 -0.01368 0.06454 0.06725 0.09923 1.138 0.182 1233.934 0.01502
0.01306 -0.01371 0.06465 0.06737 0.10033 1.022 0.174 1233.964 0.01505
0.01308 -0.01373 0.06476 0.06748 0.10144 1.002 0.173 1233.994 0.01507
0.01310 -0.01375 0.06486 0.06759 0.10254 1.225 0.187 1234.024 0.01510
0.01312 -0.01377 0.06497 0.06770 0.10365 1.111 0.179 1234.054 0.01512
0.01315 -0.01380 0.06508 0.06781 0.10475 0.848 0.161 1234.084 0.01515
0.01317 -0.01382 0.06518 0.06792 0.10586 0.902 0.165 1234.114 0.01517
0.01319 -0.01384 0.06529 0.06803 0.10696 1.068 0.176 1234.143 0.01520
0.01321 -0.01386 0.06540 0.06814 0.10807 0.992 0.171 1234.173 0.01522
0.01323 -0.01389 0.06551 0.06826 0.10917 0.953 0.168 1234.203 0.01525
0.01325 -0.01391 0.06561 0.06837 0.11028 1.044 0.174 1234.233 0.01527
0.01327 -0.01393 0.06572 0.06848 0.11138 0.949 0.167 1234.263 0.01529
0.01330 -0.01395 0.06583 0.06859 0.11248 1.003 0.171 1234.293 0.01532
0.01332 -0.01398 0.06593 0.06870 0.11359 1.130 0.179 1234.323 0.01534
0.01334 -0.01400 0.06604 0.06881 0.11469 1.018 0.171 1234.353 0.01537
0.01336 -0.01402 0.06615 0.06892 0.11580 1.090 0.176 1234.383 0.01539
0.01338 -0.01405 0.06625 0.06904 0.11690 1.343 0.179 1234.412 0.01542
0.01340 -0.01407 0.06636 0.06915 0.11801 1.231 0.184 1234.442 0.01544
0.01343 -0.01409 0.06647 0.06926 0.11911 1.065 0.174 1234.472 0.01547
0.01345 -0.01411 0.06657 0.06937 0.12022 0.902 0.194 1234.502 0.01549
0.01347 -0.01414 0.06668 0.06948 0.12132 1.080 0.174 1234.532 0.01552
0.01349 -0.01416 0.06679 0.06959 0.12243 1.168 0.167 1234.562 0.01554
0.01351 -0.01418 0.06689 0.06970 0.12354 0.967 0.166 1234.592 0.01556
0.01353 -0.01420 0.06700 0.06981 0.12464 0.947 0.165 1234.622 0.01559
0.01356 -0.01423 0.06711 0.06993 0.12575 0.838 0.157 1234.651 0.01561
0.01358 -0.01425 0.06721 0.07004 0.12685 0.962 0.166 1234.681 0.01564
0.01360 -0.01427 0.06732 0.07015 0.12796 1.320 0.187 1234.711 0.01566
0.01362 -0.01429 0.06743 0.07026 0.12906 0.691 0.146 1234.741 0.01569
0.01364 -0.01432 0.06754 0.07037 0.13017 1.066 0.172 1234.771 0.01571
0.01366 -0.01434 0.06764 0.07048 0.13127 1.029 0.169 1234.801 0.01574
0.01369 -0.01436 0.06775 0.07059 0.13238 1.028 0.169 1234.831 0.01576
0.01371 -0.01439 0.06786 0.07071 0.13348 0.829 0.155 1234.861 0.01579
0.01373 -0.01441 0.06796 0.07082 0.13459 0.811 0.154 1234.890 0.01581
0.01375 -0.01443 0.06807 0.07093 0.13570 1.005 0.167 1234.920 0.01584
0.01377 -0.01445 0.06818 0.07104 0.13680 1.003 0.167 1234.950 0.01586
0.01379 -0.01448 0.06828 0.07115 0.13791 1.019 0.168 1234.980 0.01588
0.01381 -0.01450 0.06839 0.07126 0.13901 1.070 0.171 1235.010 0.01591
0.01384 -0.01452 0.06850 0.07137 0.14012 1.174 0.177 1235.040 0.01593
0.01386 -0.01454 0.06860 0.07149 0.14122 1.138 0.174 1235.070 0.01596
0.01388 -0.01457 0.06871 0.07160 0.14233 0.696 0.144 1235.100 0.01598
0.01390 -0.01459 0.06882 0.07171 0.14344 0.819 0.153 1235.129 0.01601
0.01392 -0.01461 0.06893 0.07182 0.14454 0.817 0.153 1235.159 0.01603
0.01394 -0.01463 0.06903 0.07193 0.14565 1.096 0.171 1235.189 0.01606
0.01397 -0.01466 0.06914 0.07204 0.14675 0.989 0.164 1235.219 0.01608
0.01399 -0.01468 0.06925 0.07215 0.14786 0.867 0.156 1235.249 0.01611
0.01401 -0.01470 0.06935 0.07227 0.14897 0.987 0.164 1235.279 0.01613
0.01403 -0.01473 0.06946 0.07238 0.15007 1.056 0.168 1235.309 0.01615
0.01405 -0.01475 0.06957 0.07249 0.15118 1.124 0.172 1235.339 0.01618
0.01407 -0.01477 0.06967 0.07260 0.15228 1.070 0.169 1235.369 0.01620
0.01410 -0.01479 0.06978 0.07271 0.15339 0.739 0.146 1235.398 0.01623
0.01412 -0.01482 0.06989 0.07282 0.15450 0.843 0.154 1235.428 0.01625
0.01414 -0.01484 0.06999 0.07293 0.15560 1.049 0.167 1235.458 0.01628
0.01416 -0.01486 0.07010 0.07305 0.15671 0.995 0.163 1235.488 0.01630
0.01418 -0.01488 0.07021 0.07316 0.15782 0.839 0.153 1235.518 0.01633
0.01420 -0.01491 0.07032 0.07327 0.15892 0.907 0.157 1235.548 0.01635
0.01423 -0.01493 0.07042 0.07338 0.16003 0.961 0.161 1235.578 0.01638
0.01425 -0.01495 0.07053 0.07349 0.16114 0.970 0.161 1235.608 0.01640
0.01427 -0.01497 0.07064 0.07360 0.16224 1.080 0.168 1235.637 0.01643
0.01429 -0.01500 0.07074 0.07371 0.16335 1.088 0.169 1235.667 0.01645
0.01431 -0.01502 0.07085 0.07383 0.16446 1.053 0.167 1235.697 0.01647
0.01433 -0.01504 0.07096 0.07394 0.16556 1.274 0.180 1235.727 0.01650
0.01435 -0.01507 0.07106 0.07405 0.16667 0.754 0.145 1235.757 0.01652
0.01438 -0.01509 0.07117 0.07416 0.16778 0.968 0.161 1235.787 0.01655
0.01440 -0.01511 0.07128 0.07427 0.16888 1.215 0.175 1235.817 0.01657
0.01442 -0.01513 0.07139 0.07438 0.16999 1.077 0.167 1235.847 0.01660
0.01444 -0.01516 0.07149 0.07450 0.17110 1.039 0.164 1235.876 0.01662
0.01446 -0.01518 0.07160 0.07461 0.17220 0.780 0.147 1235.906 0.01665
0.01448 -0.01520 0.07171 0.07472 0.17331 1.026 0.163 1235.936 0.01667
0.01451 -0.01522 0.07181 0.07483 0.17442 0.995 0.162 1235.966 0.01670
0.01453 -0.01525 0.07192 0.07494 0.17553 1.060 0.166 1235.996 0.01672
0.01455 -0.01527 0.07203 0.07505 0.17663 1.123 0.170 1236.026 0.01674
0.01457 -0.01529 0.07214 0.07516 0.17774 1.114 0.169 1236.056 0.01677
0.01459 -0.01531 0.07224 0.07528 0.17885 1.007 0.161 1236.086 0.01679
0.01461 -0.01534 0.07235 0.07539 0.17995 0.919 0.155 1236.115 0.01682
0.01464 -0.01536 0.07246 0.07550 0.18106 0.905 0.155 1236.145 0.01684
0.01466 -0.01538 0.07256 0.07561 0.18217 0.970 0.159 1236.175 0.01687
0.01468 -0.01541 0.07267 0.07572 0.18328 1.154 0.171 1236.205 0.01689
0.01470 -0.01543 0.07278 0.07583 0.18438 0.968 0.159 1236.235 0.01692
0.01472 -0.01545 0.07288 0.07595 0.18549 1.051 0.164 1236.265 0.01694
0.01474 -0.01547 0.07299 0.07606 0.18660 0.999 0.161 1236.295 0.01697
0.01477 -0.01550 0.07310 0.07617 0.18771 1.099 0.167 1236.325 0.01699
0.01479 -0.01552 0.07321 0.07628 0.18881 0.980 0.160 1236.355 0.01701
0.01481 -0.01554 0.07331 0.07639 0.18992 1.248 0.176 1236.384 0.01704
0.01483 -0.01556 0.07342 0.07650 0.19103 0.945 0.157 1236.414 0.01706
0.01485 -0.01559 0.07353 0.07661 0.19214 0.961 0.158 1236.444 0.01709
0.01487 -0.01561 0.07363 0.07673 0.19324 0.961 0.158 1236.474 0.01711
0.01490 -0.01563 0.07374 0.07684 0.19435 0.927 0.156 1236.504 0.01714
0.01492 -0.01566 0.07385 0.07695 0.19546 0.892 0.153 1236.534 0.01716
0.01494 -0.01568 0.07396 0.07706 0.19657 0.825 0.149 1236.564 0.01719
0.01496 -0.01570 0.07406 0.07717 0.19768 0.691 0.139 1236.594 0.01721
0.01498 -0.01572 0.07417 0.07728 0.19878 0.923 0.155 1236.623 0.01724
0.01500 -0.01575 0.07428 0.07740 0.19989 1.087 0.165 1236.653 0.01726
0.01503 -0.01577 0.07438 0.07751 0.20100 0.987 0.159 1236.683 0.01729
0.01505 -0.01579 0.07449 0.07762 0.20211 0.970 0.158 1236.713 0.01731
0.01507 -0.01581 0.07460 0.07773 0.20322 1.068 0.164 1236.743 0.01733
0.01509 -0.01584 0.07471 0.07784 0.20432 0.886 0.152 1236.773 0.01736
0.01511 -0.01586 0.07481 0.07795 0.20543 0.901 0.153 1236.803 0.01738
0.01513 -0.01588 0.07492 0.07807 0.20654 0.785 0.145 1236.833 0.01741
0.01516 -0.01591 0.07503 0.07818 0.20765 0.570 0.129 1236.862 0.01743
0.01518 -0.01593 0.07513 0.07829 0.20876 0.865 0.150 1236.892 0.01746
0.01520 -0.01595 0.07524 0.07840 0.20987 0.882 0.152 1236.922 0.01748
0.01522 -0.01597 0.07535 0.07851 0.21097 0.914 0.154 1236.952 0.01751
0.01524 -0.01600 0.07546 0.07862 0.21208 0.766 0.143 1236.982 0.01753
0.01526 -0.01602 0.07556 0.07874 0.21319 0.782 0.144 1237.012 0.01756
0.01529 -0.01604 0.07567 0.07885 0.21430 1.029 0.160 1237.042 0.01758
0.01531 -0.01606 0.07578 0.07896 0.21541 0.847 0.149 1237.072 0.01760
0.01533 -0.01609 0.07588 0.07907 0.21652 0.796 0.145 1237.101 0.01763
0.01535 -0.01611 0.07599 0.07918 0.21762 1.108 0.165 1237.131 0.01765
0.01537 -0.01613 0.07610 0.07929 0.21873 0.828 0.148 1237.161 0.01768
0.01539 -0.01616 0.07621 0.07941 0.21984 1.041 0.161 1237.191 0.01770
0.01541 -0.01618 0.07631 0.07952 0.22095 1.220 0.172 1237.221 0.01773
0.01544 -0.01620 0.07642 0.07963 0.22206 1.039 0.161 1237.251 0.01775
0.01546 -0.01622 0.07653 0.07974 0.22317 1.119 0.166 1237.281 0.01778
0.01548 -0.01625 0.07664 0.07985 0.22428 0.923 0.154 1237.311 0.01780
0.01550 -0.01627 0.07674 0.07996 0.22539 1.216 0.161 1237.341 0.01783
0.01552 -0.01629 0.07685 0.08008 0.22650 1.133 0.167 1237.370 0.01785
0.01554 -0.01631 0.07696 0.08019 0.22760 1.198 0.170 1237.400 0.01788
0.01557 -0.01634 0.07706 0.08030 0.22871 1.149 0.167 1237.430 0.01790
0.01559 -0.01636 0.07717 0.08041 0.22982 1.051 0.161 1237.460 0.01792
0.01561 -0.01638 0.07728 0.08052 0.23093 1.131 0.166 1237.490 0.01795
0.01563 -0.01641 0.07739 0.08064 0.23204 0.739 0.141 1237.520 0.01797
0.01565 -0.01643 0.07749 0.08075 0.23315 0.951 0.155 1237.550 0.01800
0.01567 -0.01645 0.07760 0.08086 0.23426 0.869 0.150 1237.580 0.01802
0.01570 -0.01647 0.07771 0.08097 0.23537 1.130 0.166 1237.609 0.01805
0.01572 -0.01650 0.07781 0.08108 0.23648 0.837 0.147 1237.639 0.01807
0.01574 -0.01652 0.07792 0.08119 0.23759 0.917 0.153 1237.669 0.01810
0.01576 -0.01654 0.07803 0.08131 0.23870 0.933 0.153 1237.699 0.01812
0.01578 -0.01656 0.07814 0.08142 0.23981 0.997 0.157 1237.729 0.01815
0.01580 -0.01659 0.07824 0.08153 0.24092 1.208 0.170 1237.759 0.01817
0.01583 -0.01661 0.07835 0.08164 0.24202 0.981 0.156 1237.789 0.01819
0.01585 -0.01663 0.07846 0.08175 0.24313 1.012 0.158 1237.819 0.01822
0.01587 -0.01666 0.07857 0.08186 0.24424 1.028 0.159 1237.848 0.01824
0.01589 -0.01668 0.07867 0.08198 0.24535 0.947 0.154 1237.878 0.01827
0.01591 -0.01670 0.07878 0.08209 0.24646 0.963 0.155 1237.908 0.01829
0.01593 -0.01672 0.07889 0.08220 0.24757 0.962 0.155 1237.938 0.01832
0.01596 -0.01675 0.07899 0.08231 0.24868 1.139 0.166 1237.968 0.01834
0.01598 -0.01677 0.07910 0.08242 0.24979 0.864 0.149 1237.998 0.01837
0.01600 -0.01679 0.07921 0.08254 0.25090 1.025 0.159 1238.028 0.01839
0.01602 -0.01681 0.07932 0.08265 0.25201 0.831 0.146 1238.058 0.01842
0.01604 -0.01684 0.07942 0.08276 0.25312 0.896 0.150 1238.087 0.01844
0.01606 -0.01686 0.07953 0.08287 0.25423 0.687 0.136 1238.117 0.01847
0.01609 -0.01688 0.07964 0.08298 0.25534 0.509 0.121 1238.147 0.01849
0.01611 -0.01691 0.07975 0.08309 0.25645 0.621 0.131 1238.177 0.01851
0.01613 -0.01693 0.07985 0.08321 0.25756 0.862 0.148 1238.207 0.01854
0.01615 -0.01695 0.07996 0.08332 0.25867 0.911 0.151 1238.237 0.01856
0.01617 -0.01697 0.08007 0.08343 0.25978 0.927 0.152 1238.267 0.01859
0.01620 -0.01700 0.08018 0.08354 0.26089 0.589 0.128 1238.297 0.01861
0.01622 -0.01702 0.08028 0.08365 0.26200 0.638 0.131 1238.327 0.01864
0.01624 -0.01704 0.08039 0.08377 0.26311 0.525 0.123 1238.356 0.01866
0.01626 -0.01706 0.08050 0.08388 0.26422 0.638 0.132 1238.386 0.01869
0.01628 -0.01709 0.08060 0.08399 0.26533 0.381 0.109 1238.416 0.01871
0.01630 -0.01711 0.08071 0.08410 0.26644 0.364 0.107 1238.446 0.01874
0.01633 -0.01713 0.08082 0.08421 0.26755 0.444 0.115 1238.476 0.01876
0.01635 -0.01716 0.08093 0.08432 0.26866 0.604 0.129 1238.506 0.01878
0.01637 -0.01718 0.08103 0.08444 0.26978 0.732 0.138 1238.536 0.01881
0.01639 -0.01720 0.08114 0.08455 0.27089 0.701 0.136 1238.566 0.01883
0.01641 -0.01722 0.08125 0.08466 0.27200 0.877 0.148 1238.595 0.01886
0.01643 -0.01725 0.08136 0.08477 0.27311 0.700 0.136 1238.625 0.01888
0.01646 -0.01727 0.08146 0.08488 0.27422 0.555 0.125 1238.655 0.01891
0.01648 -0.01729 0.08157 0.08500 0.27533 0.700 0.136 1238.685 0.01893
0.01650 -0.01732 0.08168 0.08511 0.27644 0.667 0.134 1238.715 0.01896
0.01652 -0.01734 0.08179 0.08522 0.27755 0.667 0.134 1238.745 0.01898
0.01654 -0.01736 0.08189 0.08533 0.27866 0.554 0.125 1238.775 0.01901
0.01656 -0.01738 0.08200 0.08544 0.27977 0.347 0.106 1238.805 0.01903
0.01659 -0.01741 0.08211 0.08556 0.28088 0.363 0.108 1238.834 0.01905
0.01661 -0.01743 0.08222 0.08567 0.28199 0.202 0.088 1238.864 0.01908
0.01663 -0.01745 0.08232 0.08578 0.28310 0.106 0.075 1238.894 0.01910
0.01665 -0.01747 0.08243 0.08589 0.28422 0.106 0.075 1238.924 0.01913
0.01667 -0.01750 0.08254 0.08600 0.28533 0.058 0.098 1238.954 0.01915
0.01669 -0.01752 0.08265 0.08612 0.28644 0.027 0.112 1238.984 0.01918
0.01672 -0.01754 0.08275 0.08623 0.28755 -0.005 0.103 1239.014 0.01920
0.01674 -0.01757 0.08286 0.08634 0.28866 0.060 0.120 1239.044 0.01923
0.01676 -0.01759 0.08297 0.08645 0.28977 0.092 0.127 1239.073 0.01925
0.01678 -0.01761 0.08308 0.08656 0.29088 -0.006 0.103 1239.103 0.01928
0.01680 -0.01763 0.08318 0.08668 0.29199 0.059 0.120 1239.133 0.01930
0.01682 -0.01766 0.08329 0.08679 0.29310 -0.006 0.103 1239.163 0.01933
0.01685 -0.01768 0.08340 0.08690 0.29422 0.091 0.127 1239.193 0.01935
0.01687 -0.01770 0.08350 0.08701 0.29533 0.059 0.119 1239.223 0.01937
0.01689 -0.01773 0.08361 0.08712 0.29644 0.091 0.127 1239.253 0.01940
0.01691 -0.01775 0.08372 0.08724 0.29755 0.059 0.120 1239.283 0.01942
0.01693 -0.01777 0.08383 0.08735 0.29866 0.123 0.134 1239.313 0.01945
0.01695 -0.01779 0.08393 0.08746 0.29977 0.091 0.127 1239.342 0.01947
0.01698 -0.01782 0.08404 0.08757 0.30089 0.156 0.141 1239.372 0.01950
0.01700 -0.01784 0.08415 0.08768 0.30200 0.253 0.158 1239.402 0.01952
0.01702 -0.01786 0.08426 0.08780 0.30311 0.610 0.203 1239.432 0.01955
0.01704 -0.01788 0.08436 0.08791 0.30422 0.545 0.196 1239.462 0.01957
0.01706 -0.01791 0.08447 0.08802 0.30533 0.804 0.223 1239.492 0.01960
0.01708 -0.01793 0.08458 0.08813 0.30644 0.901 0.231 1239.522 0.01962
0.01711 -0.01795 0.08469 0.08824 0.30756 0.609 0.203 1239.552 0.01964
0.01713 -0.01798 0.08479 0.08836 0.30867 1.064 0.246 1239.581 0.01967
0.01715 -0.01800 0.08490 0.08847 0.30978 0.901 0.232 1239.611 0.01969
0.01717 -0.01802 0.08501 0.08858 0.31089 1.128 0.251 1239.641 0.01972
0.01719 -0.01804 0.08512 0.08869 0.31200 0.967 0.238 1239.671 0.01974
0.01722 -0.01807 0.08522 0.08880 0.31312 1.033 0.243 1239.701 0.01977
