x y z dist_scaled dist_frac flux_norm sig_norm wavelength redshift
0.04342 0.00885 0.03626 0.05726 0.00000 0.834 0.108 1231.245 0.01281
0.04351 0.00887 0.03633 0.05737 0.00110 0.909 0.113 1231.275 0.01284
0.04359 0.00888 0.03640 0.05748 0.00220 0.788 0.105 1231.305 0.01286
0.04368 0.00890 0.03647 0.05759 0.00330 0.888 0.118 1231.335 0.01289
0.04376 0.00892 0.03654 0.05770 0.00440 0.670 0.097 1231.365 0.01291
0.04384 0.00894 0.03661 0.05781 0.00550 0.789 0.112 1231.395 0.01293
0.04393 0.00895 0.03668 0.05792 0.00661 0.604 0.101 1231.425 0.01296
0.04401 0.00897 0.03675 0.05803 0.00771 0.549 0.097 1231.454 0.01298
0.04410 0.00899 0.03682 0.05814 0.00881 0.364 0.082 1231.484 0.01301
0.04418 0.00900 0.03689 0.05826 0.00991 0.375 0.083 1231.514 0.01303
0.04426 0.00902 0.03696 0.05837 0.01101 0.235 0.072 1231.544 0.01306
0.04435 0.00904 0.03703 0.05848 0.01211 0.170 0.066 1231.574 0.01308
0.04443 0.00906 0.03710 0.05859 0.01321 0.246 0.074 1231.604 0.01311
0.04452 0.00907 0.03717 0.05870 0.01431 0.104 0.058 1231.634 0.01313
0.04460 0.00909 0.03724 0.05881 0.01541 0.180 0.068 1231.664 0.01316
0.04469 0.00911 0.03731 0.05892 0.01652 0.191 0.069 1231.693 0.01318
0.04477 0.00912 0.03738 0.05903 0.01762 0.202 0.070 1231.723 0.01321
0.04485 0.00914 0.03745 0.05914 0.01872 0.268 0.076 1231.753 0.01323
0.04494 0.00916 0.03752 0.05925 0.01982 0.376 0.086 1231.783 0.01325
0.04502 0.00918 0.03759 0.05936 0.02092 0.528 0.096 1231.813 0.01328
0.04511 0.00919 0.03766 0.05948 0.02202 0.658 0.106 1231.843 0.01330
0.04519 0.00921 0.03773 0.05959 0.02312 0.778 0.113 1231.873 0.01333
0.04527 0.00923 0.03780 0.05970 0.02423 0.855 0.117 1231.903 0.01335
0.04536 0.00924 0.03787 0.05981 0.02533 0.801 0.114 1231.932 0.01338
0.04544 0.00926 0.03794 0.05992 0.02643 1.136 0.111 1231.962 0.01340
0.04553 0.00928 0.03801 0.06003 0.02753 0.855 0.117 1231.992 0.01343
0.04561 0.00930 0.03808 0.06014 0.02863 0.954 0.108 1232.022 0.01345
0.04570 0.00931 0.03815 0.06025 0.02973 0.834 0.116 1232.052 0.01348
0.04578 0.00933 0.03822 0.06036 0.03084 1.030 0.119 1232.082 0.01350
0.04586 0.00935 0.03829 0.06047 0.03194 1.113 0.117 1232.112 0.01352
0.04595 0.00937 0.03836 0.06059 0.03304 1.135 0.117 1232.142 0.01355
0.04603 0.00938 0.03843 0.06070 0.03414 0.810 0.114 1232.171 0.01357
0.04612 0.00940 0.03850 0.06081 0.03524 1.024 0.112 1232.201 0.01360
0.04620 0.00942 0.03857 0.06092 0.03635 0.907 0.113 1232.231 0.01362
0.04628 0.00943 0.03864 0.06103 0.03745 0.851 0.110 1232.261 0.01365
0.04637 0.00945 0.03871 0.06114 0.03855 1.100 0.116 1232.291 0.01367
0.04645 0.00947 0.03879 0.06125 0.03965 0.881 0.118 1232.321 0.01370
0.04654 0.00949 0.03886 0.06136 0.04075 1.000 0.111 1232.351 0.01372
0.04662 0.00950 0.03893 0.06147 0.04186 1.001 0.110 1232.381 0.01375
0.04671 0.00952 0.03900 0.06159 0.04296 1.066 0.114 1232.411 0.01377
0.04679 0.00954 0.03907 0.06170 0.04406 1.122 0.110 1232.440 0.01380
0.04687 0.00955 0.03914 0.06181 0.04516 1.035 0.119 1232.470 0.01382
0.04696 0.00957 0.03921 0.06192 0.04627 0.969 0.109 1232.500 0.01384
0.04704 0.00959 0.03928 0.06203 0.04737 0.947 0.115 1232.530 0.01387
0.04713 0.00961 0.03935 0.06214 0.04847 1.034 0.112 1232.560 0.01389
0.04721 0.00962 0.03942 0.06225 0.04957 0.795 0.113 1232.590 0.01392
0.04730 0.00964 0.03949 0.06236 0.05068 0.849 0.109 1232.620 0.01394
0.04738 0.00966 0.03956 0.06247 0.05178 0.947 0.114 1232.650 0.01397
0.04746 0.00967 0.03963 0.06258 0.05288 1.043 0.106 1232.679 0.01399
0.04755 0.00969 0.03970 0.06270 0.05398 1.032 0.112 1232.709 0.01402
0.04763 0.00971 0.03977 0.06281 0.05509 1.032 0.119 1232.739 0.01404
0.04772 0.00973 0.03984 0.06292 0.05619 0.911 0.112 1232.769 0.01407
0.04780 0.00974 0.03991 0.06303 0.05729 0.890 0.111 1232.799 0.01409
0.04788 0.00976 0.03998 0.06314 0.05840 1.074 0.114 1232.829 0.01411
0.04797 0.00978 0.04005 0.06325 0.05950 1.102 0.115 1232.859 0.01414
0.04805 0.00979 0.04012 0.06336 0.06060 1.160 0.112 1232.889 0.01416
0.04814 0.00981 0.04019 0.06347 0.06170 0.974 0.109 1232.918 0.01419
0.04822 0.00983 0.04026 0.06358 0.06281 0.960 0.115 1232.948 0.01421
0.04831 0.00985 0.04033 0.06370 0.06391 1.061 0.107 1232.978 0.01424
0.04839 0.00986 0.04040 0.06381 0.06501 0.912 0.112 1233.008 0.01426
0.04847 0.00988 0.04047 0.06392 0.06612 0.851 0.115 1233.038 0.01429
0.04856 0.00990 0.04054 0.06403 0.06722 0.821 0.113 1233.068 0.01431
0.04864 0.00991 0.04061 0.06414 0.06832 0.943 0.114 1233.098 0.01434
0.04873 0.00993 0.04068 0.06425 0.06943 0.755 0.110 1233.128 0.01436
0.04881 0.00995 0.04076 0.06436 0.07053 1.051 0.112 1233.157 0.01439
0.04890 0.00997 0.04083 0.06447 0.07163 0.982 0.103 1233.187 0.01441
0.04898 0.00998 0.04090 0.06459 0.07274 0.830 0.107 1233.217 0.01443
0.04907 0.01000 0.04097 0.06470 0.07384 0.988 0.109 1233.247 0.01446
0.04915 0.01002 0.04104 0.06481 0.07494 0.974 0.116 1233.277 0.01448
0.04923 0.01003 0.04111 0.06492 0.07605 0.796 0.112 1233.307 0.01451
0.04932 0.01005 0.04118 0.06503 0.07715 0.951 0.114 1233.337 0.01453
0.04940 0.01007 0.04125 0.06514 0.07825 0.993 0.110 1233.367 0.01456
0.04949 0.01009 0.04132 0.06525 0.07936 0.960 0.108 1233.397 0.01458
0.04957 0.01010 0.04139 0.06536 0.08046 0.961 0.108 1233.426 0.01461
0.04966 0.01012 0.04146 0.06547 0.08156 0.958 0.114 1233.456 0.01463
0.04974 0.01014 0.04153 0.06559 0.08267 0.799 0.106 1233.486 0.01466
0.04982 0.01016 0.04160 0.06570 0.08377 0.788 0.104 1233.516 0.01468
0.04991 0.01017 0.04167 0.06581 0.08488 1.035 0.118 1233.546 0.01470
0.04999 0.01019 0.04174 0.06592 0.08598 0.928 0.113 1233.576 0.01473
0.05008 0.01021 0.04181 0.06603 0.08708 1.013 0.104 1233.606 0.01475
0.05016 0.01022 0.04188 0.06614 0.08819 1.013 0.111 1233.636 0.01478
0.05025 0.01024 0.04195 0.06625 0.08929 0.979 0.115 1233.665 0.01480
0.05033 0.01026 0.04202 0.06636 0.09040 1.043 0.112 1233.695 0.01483
0.05041 0.01028 0.04209 0.06648 0.09150 0.853 0.102 1233.725 0.01485
0.05050 0.01029 0.04216 0.06659 0.09260 1.044 0.111 1233.755 0.01488
0.05058 0.01031 0.04223 0.06670 0.09371 1.162 0.111 1233.785 0.01490
0.05067 0.01033 0.04230 0.06681 0.09481 0.884 0.110 1233.815 0.01493
0.05075 0.01034 0.04237 0.06692 0.09592 1.076 0.113 1233.845 0.01495
0.05084 0.01036 0.04245 0.06703 0.09702 1.141 0.110 1233.875 0.01497
0.05092 0.01038 0.04252 0.06714 0.09813 1.023 0.104 1233.904 0.01500
0.05100 0.01040 0.04259 0.06725 0.09923 0.927 0.113 1233.934 0.01502
0.05109 0.01041 0.04266 0.06737 0.10033 1.024 0.117 1233.964 0.01505
0.05117 0.01043 0.04273 0.06748 0.10144 0.958 0.114 1233.994 0.01507
0.05126 0.01045 0.04280 0.06759 0.10254 1.001 0.116 1234.024 0.01510
0.05134 0.01046 0.04287 0.06770 0.10365 0.895 0.111 1234.054 0.01512
0.05143 0.01048 0.04294 0.06781 0.10475 0.927 0.112 1234.084 0.01515
0.05151 0.01050 0.04301 0.06792 0.10586 1.001 0.116 1234.114 0.01517
0.05160 0.01052 0.04308 0.06803 0.10696 0.891 0.117 1234.143 0.01520
0.05168 0.01053 0.04315 0.06814 0.10807 1.179 0.112 1234.173 0.01522
0.05176 0.01055 0.04322 0.06826 0.10917 0.944 0.114 1234.203 0.01525
0.05185 0.01057 0.04329 0.06837 0.11028 1.168 0.118 1234.233 0.01527
0.05193 0.01059 0.04336 0.06848 0.11138 0.710 0.107 1234.263 0.01529
0.05202 0.01060 0.04343 0.06859 0.11248 1.027 0.117 1234.293 0.01532
0.05210 0.01062 0.04350 0.06870 0.11359 0.996 0.110 1234.323 0.01534
0.05219 0.01064 0.04357 0.06881 0.11469 0.816 0.106 1234.353 0.01537
0.05227 0.01065 0.04364 0.06892 0.11580 0.912 0.112 1234.383 0.01539
0.05236 0.01067 0.04371 0.06904 0.11690 1.103 0.114 1234.412 0.01542
0.05244 0.01069 0.04378 0.06915 0.11801 0.975 0.114 1234.442 0.01544
0.05252 0.01071 0.04385 0.06926 0.11911 1.050 0.105 1234.472 0.01547
0.05261 0.01072 0.04393 0.06937 0.12022 1.017 0.117 1234.502 0.01549
0.05269 0.01074 0.04400 0.06948 0.12132 0.879 0.110 1234.532 0.01552
0.05278 0.01076 0.04407 0.06959 0.12243 1.017 0.116 1234.562 0.01554
0.05286 0.01077 0.04414 0.06970 0.12354 0.877 0.116 1234.592 0.01556
0.05295 0.01079 0.04421 0.06981 0.12464 0.984 0.109 1234.622 0.01559
0.05303 0.01081 0.04428 0.06993 0.12575 0.994 0.116 1234.651 0.01561
0.05312 0.01083 0.04435 0.07004 0.12685 0.930 0.112 1234.681 0.01564
0.05320 0.01084 0.04442 0.07015 0.12796 0.951 0.106 1234.711 0.01566
0.05328 0.01086 0.04449 0.07026 0.12906 0.940 0.112 1234.741 0.01569
0.05337 0.01088 0.04456 0.07037 0.13017 0.813 0.106 1234.771 0.01571
0.05345 0.01089 0.04463 0.07048 0.13127 0.898 0.103 1234.801 0.01574
0.05354 0.01091 0.04470 0.07059 0.13238 0.875 0.109 1234.831 0.01576
0.05362 0.01093 0.04477 0.07071 0.13348 0.981 0.108 1234.861 0.01579
0.05371 0.01095 0.04484 0.07082 0.13459 0.995 0.109 1234.890 0.01581
0.05379 0.01096 0.04491 0.07093 0.13570 0.961 0.107 1234.920 0.01584
0.05388 0.01098 0.04498 0.07104 0.13680 1.032 0.110 1234.950 0.01586
0.05396 0.01100 0.04505 0.07115 0.13791 0.990 0.109 1234.980 0.01588
0.05404 0.01102 0.04512 0.07126 0.13901 1.085 0.107 1235.010 0.01591
0.05413 0.01103 0.04519 0.07137 0.14012 1.063 0.112 1235.040 0.01593
0.05421 0.01105 0.04527 0.07149 0.14122 0.841 0.107 1235.070 0.01596
0.05430 0.01107 0.04534 0.07160 0.14233 1.001 0.109 1235.100 0.01598
0.05438 0.01108 0.04541 0.07171 0.14344 0.981 0.108 1235.129 0.01601
0.05447 0.01110 0.04548 0.07182 0.14454 1.033 0.104 1235.159 0.01603
0.05455 0.01112 0.04555 0.07193 0.14565 0.960 0.107 1235.189 0.01606
0.05464 0.01114 0.04562 0.07204 0.14675 0.738 0.100 1235.219 0.01608
0.05472 0.01115 0.04569 0.07215 0.14786 0.789 0.103 1235.249 0.01611
0.05481 0.01117 0.04576 0.07227 0.14897 0.927 0.105 1235.279 0.01613
0.05489 0.01119 0.04583 0.07238 0.15007 1.097 0.107 1235.309 0.01615
0.05497 0.01120 0.04590 0.07249 0.15118 0.989 0.115 1235.339 0.01618
0.05506 0.01122 0.04597 0.07260 0.15228 0.831 0.113 1235.369 0.01620
0.05514 0.01124 0.04604 0.07271 0.15339 0.978 0.114 1235.398 0.01623
0.05523 0.01126 0.04611 0.07282 0.15450 0.924 0.105 1235.428 0.01625
0.05531 0.01127 0.04618 0.07293 0.15560 0.882 0.109 1235.458 0.01628
0.05540 0.01129 0.04625 0.07305 0.15671 0.850 0.108 1235.488 0.01630
0.05548 0.01131 0.04632 0.07316 0.15782 0.996 0.115 1235.518 0.01633
0.05557 0.01133 0.04639 0.07327 0.15892 0.791 0.111 1235.548 0.01635
0.05565 0.01134 0.04646 0.07338 0.16003 0.897 0.109 1235.578 0.01638
0.05574 0.01136 0.04654 0.07349 0.16114 0.969 0.107 1235.608 0.01640
0.05582 0.01138 0.04661 0.07360 0.16224 0.860 0.115 1235.637 0.01643
0.05590 0.01139 0.04668 0.07371 0.16335 1.133 0.109 1235.667 0.01645
0.05599 0.01141 0.04675 0.07383 0.16446 0.909 0.110 1235.697 0.01647
0.05607 0.01143 0.04682 0.07394 0.16556 1.068 0.112 1235.727 0.01650
0.05616 0.01145 0.04689 0.07405 0.16667 1.066 0.112 1235.757 0.01652
0.05624 0.01146 0.04696 0.07416 0.16778 0.951 0.112 1235.787 0.01655
0.05633 0.01148 0.04703 0.07427 0.16888 0.862 0.114 1235.817 0.01657
0.05641 0.01150 0.04710 0.07438 0.16999 0.869 0.108 1235.847 0.01660
0.05650 0.01152 0.04717 0.07450 0.17110 0.748 0.107 1235.876 0.01662
0.05658 0.01153 0.04724 0.07461 0.17220 0.963 0.113 1235.906 0.01665
0.05667 0.01155 0.04731 0.07472 0.17331 0.847 0.107 1235.936 0.01667
0.05675 0.01157 0.04738 0.07483 0.17442 0.952 0.111 1235.966 0.01670
0.05683 0.01158 0.04745 0.07494 0.17553 0.890 0.103 1235.996 0.01672
0.05692 0.01160 0.04752 0.07505 0.17663 0.843 0.106 1236.026 0.01674
0.05700 0.01162 0.04759 0.07516 0.17774 0.864 0.101 1236.056 0.01677
0.05709 0.01164 0.04767 0.07528 0.17885 1.142 0.115 1236.086 0.01679
0.05717 0.01165 0.04774 0.07539 0.17995 1.089 0.113 1236.115 0.01682
0.05726 0.01167 0.04781 0.07550 0.18106 0.754 0.108 1236.145 0.01684
0.05734 0.01169 0.04788 0.07561 0.18217 0.942 0.112 1236.175 0.01687
0.05743 0.01170 0.04795 0.07572 0.18328 1.172 0.117 1236.205 0.01689
0.05751 0.01172 0.04802 0.07583 0.18438 1.041 0.104 1236.235 0.01692
0.05760 0.01174 0.04809 0.07595 0.18549 0.904 0.110 1236.265 0.01694
0.05768 0.01176 0.04816 0.07606 0.18660 0.875 0.101 1236.295 0.01697
0.05777 0.01177 0.04823 0.07617 0.18771 1.049 0.104 1236.325 0.01699
0.05785 0.01179 0.04830 0.07628 0.18881 1.073 0.112 1236.355 0.01701
0.05793 0.01181 0.04837 0.07639 0.18992 1.004 0.108 1236.384 0.01704
0.05802 0.01183 0.04844 0.07650 0.19103 0.920 0.111 1236.414 0.01706
0.05810 0.01184 0.04851 0.07661 0.19214 1.201 0.112 1236.444 0.01709
0.05819 0.01186 0.04858 0.07673 0.19324 1.108 0.113 1236.474 0.01711
0.05827 0.01188 0.04865 0.07684 0.19435 1.245 0.114 1236.504 0.01714
0.05836 0.01189 0.04873 0.07695 0.19546 0.982 0.113 1236.534 0.01716
0.05844 0.01191 0.04880 0.07706 0.19657 0.923 0.111 1236.564 0.01719
0.05853 0.01193 0.04887 0.07717 0.19768 0.836 0.106 1236.594 0.01721
0.05861 0.01195 0.04894 0.07728 0.19878 0.905 0.103 1236.623 0.01724
0.05870 0.01196 0.04901 0.07740 0.19989 1.058 0.111 1236.653 0.01726
0.05878 0.01198 0.04908 0.07751 0.20100 1.033 0.109 1236.683 0.01729
0.05887 0.01200 0.04915 0.07762 0.20211 0.951 0.112 1236.713 0.01731
0.05895 0.01202 0.04922 0.07773 0.20322 1.063 0.111 1236.743 0.01733
0.05904 0.01203 0.04929 0.07784 0.20432 0.905 0.110 1236.773 0.01736
0.05912 0.01205 0.04936 0.07795 0.20543 1.042 0.104 1236.803 0.01738
0.05920 0.01207 0.04943 0.07807 0.20654 0.907 0.103 1236.833 0.01741
0.05929 0.01208 0.04950 0.07818 0.20765 1.059 0.118 1236.862 0.01743
0.05937 0.01210 0.04957 0.07829 0.20876 0.907 0.109 1236.892 0.01746
0.05946 0.01212 0.04964 0.07840 0.20987 1.041 0.110 1236.922 0.01748
0.05954 0.01214 0.04971 0.07851 0.21097 1.084 0.106 1236.952 0.01751
0.05963 0.01215 0.04979 0.07862 0.21208 0.990 0.113 1236.982 0.01753
0.05971 0.01217 0.04986 0.07874 0.21319 0.750 0.107 1237.012 0.01756
0.05980 0.01219 0.04993 0.07885 0.21430 0.885 0.108 1237.042 0.01758
0.05988 0.01221 0.05000 0.07896 0.21541 0.980 0.107 1237.072 0.01760
0.05997 0.01222 0.05007 0.07907 0.21652 1.001 0.108 1237.101 0.01763
0.06005 0.01224 0.05014 0.07918 0.21762 0.894 0.115 1237.131 0.01765
0.06014 0.01226 0.05021 0.07929 0.21873 1.143 0.126 1237.161 0.01768
0.06022 0.01227 0.05028 0.07941 0.21984 0.896 0.109 1237.191 0.01770
0.06031 0.01229 0.05035 0.07952 0.22095 0.978 0.113 1237.221 0.01773
0.06039 0.01231 0.05042 0.07963 0.22206 1.073 0.111 1237.251 0.01775
0.06047 0.01233 0.05049 0.07974 0.22317 0.959 0.104 1237.281 0.01778
0.06056 0.01234 0.05056 0.07985 0.22428 0.927 0.104 1237.311 0.01780
0.06064 0.01236 0.05063 0.07996 0.22539 1.073 0.111 1237.341 0.01783
0.06073 0.01238 0.05070 0.08008 0.22650 1.187 0.111 1237.370 0.01785
0.06081 0.01240 0.05078 0.08019 0.22760 1.207 0.112 1237.400 0.01788
0.06090 0.01241 0.05085 0.08030 0.22871 0.947 0.105 1237.430 0.01790
0.06098 0.01243 0.05092 0.08041 0.22982 1.007 0.108 1237.460 0.01792
0.06107 0.01245 0.05099 0.08052 0.23093 1.080 0.112 1237.490 0.01795
0.06115 0.01246 0.05106 0.08064 0.23204 0.987 0.101 1237.520 0.01797
0.06124 0.01248 0.05113 0.08075 0.23315 0.914 0.110 1237.550 0.01800
0.06132 0.01250 0.05120 0.08086 0.23426 0.985 0.107 1237.580 0.01802
0.06141 0.01252 0.05127 0.08097 0.23537 1.122 0.107 1237.609 0.01805
0.06149 0.01253 0.05134 0.08108 0.23648 0.840 0.112 1237.639 0.01807
0.06158 0.01255 0.05141 0.08119 0.23759 0.914 0.110 1237.669 0.01810
0.06166 0.01257 0.05148 0.08131 0.23870 1.007 0.108 1237.699 0.01812
0.06175 0.01259 0.05155 0.08142 0.23981 0.882 0.114 1237.729 0.01815
0.06183 0.01260 0.05162 0.08153 0.24092 1.016 0.108 1237.759 0.01817
0.06192 0.01262 0.05170 0.08164 0.24202 1.078 0.105 1237.789 0.01819
0.06200 0.01264 0.05177 0.08175 0.24313 0.839 0.099 1237.819 0.01822
0.06209 0.01265 0.05184 0.08186 0.24424 0.974 0.112 1237.848 0.01824
0.06217 0.01267 0.05191 0.08198 0.24535 1.026 0.109 1237.878 0.01827
0.06225 0.01269 0.05198 0.08209 0.24646 0.954 0.105 1237.908 0.01829
0.06234 0.01271 0.05205 0.08220 0.24757 0.872 0.107 1237.938 0.01832
0.06242 0.01272 0.05212 0.08231 0.24868 0.901 0.109 1237.968 0.01834
0.06251 0.01274 0.05219 0.08242 0.24979 1.057 0.104 1237.998 0.01837
0.06259 0.01276 0.05226 0.08254 0.25090 0.993 0.107 1238.028 0.01839
0.06268 0.01278 0.05233 0.08265 0.25201 0.859 0.107 1238.058 0.01842
0.06276 0.01279 0.05240 0.08276 0.25312 1.119 0.107 1238.087 0.01844
0.06285 0.01281 0.05247 0.08287 0.25423 1.192 0.111 1238.117 0.01847
0.06293 0.01283 0.05255 0.08298 0.25534 1.055 0.110 1238.147 0.01849
0.06302 0.01284 0.05262 0.08309 0.25645 0.859 0.107 1238.177 0.01851
0.06310 0.01286 0.05269 0.08321 0.25756 0.757 0.107 1238.207 0.01854
0.06319 0.01288 0.05276 0.08332 0.25867 0.952 0.105 1238.237 0.01856
0.06327 0.01290 0.05283 0.08343 0.25978 0.974 0.106 1238.267 0.01859
0.06336 0.01291 0.05290 0.08354 0.26089 1.086 0.105 1238.297 0.01861
0.06344 0.01293 0.05297 0.08365 0.26200 1.034 0.109 1238.327 0.01864
0.06353 0.01295 0.05304 0.08377 0.26311 0.972 0.106 1238.356 0.01866
0.06361 0.01297 0.05311 0.08388 0.26422 0.972 0.106 1238.386 0.01869
0.06370 0.01298 0.05318 0.08399 0.26533 1.056 0.110 1238.416 0.01871
0.06378 0.01300 0.05325 0.08410 0.26644 1.088 0.105 1238.446 0.01874
0.06387 0.01302 0.05332 0.08421 0.26755 0.911 0.103 1238.476 0.01876
0.06395 0.01303 0.05340 0.08432 0.26866 1.125 0.113 1238.506 0.01878
0.06404 0.01305 0.05347 0.08444 0.26978 1.074 0.111 1238.536 0.01881
0.06412 0.01307 0.05354 0.08455 0.27089 1.024 0.102 1238.566 0.01883
0.06421 0.01309 0.05361 0.08466 0.27200 1.002 0.107 1238.595 0.01886
0.06429 0.01310 0.05368 0.08477 0.27311 0.930 0.103 1238.625 0.01888
0.06438 0.01312 0.05375 0.08488 0.27422 0.950 0.104 1238.655 0.01891
0.06446 0.01314 0.05382 0.08500 0.27533 0.909 0.109 1238.685 0.01893
0.06455 0.01316 0.05389 0.08511 0.27644 0.836 0.105 1238.715 0.01896
0.06463 0.01317 0.05396 0.08522 0.27755 0.671 0.102 1238.745 0.01898
0.06471 0.01319 0.05403 0.08533 0.27866 0.714 0.098 1238.775 0.01901
0.06480 0.01321 0.05410 0.08544 0.27977 0.827 0.097 1238.805 0.01903
0.06488 0.01322 0.05417 0.08556 0.28088 0.816 0.104 1238.834 0.01905
0.06497 0.01324 0.05425 0.08567 0.28199 0.961 0.105 1238.864 0.01908
0.06505 0.01326 0.05432 0.08578 0.28310 0.959 0.105 1238.894 0.01910
0.06514 0.01328 0.05439 0.08589 0.28422 0.887 0.108 1238.924 0.01913
0.06522 0.01329 0.05446 0.08600 0.28533 0.876 0.107 1238.954 0.01915
0.06531 0.01331 0.05453 0.08612 0.28644 1.155 0.114 1238.984 0.01918
0.06539 0.01333 0.05460 0.08623 0.28755 0.887 0.107 1239.014 0.01920
0.06548 0.01335 0.05467 0.08634 0.28866 1.030 0.102 1239.044 0.01923
0.06556 0.01336 0.05474 0.08645 0.28977 0.793 0.109 1239.073 0.01925
0.06565 0.01338 0.05481 0.08656 0.29088 0.947 0.105 1239.103 0.01928
0.06573 0.01340 0.05488 0.08668 0.29199 0.885 0.114 1239.133 0.01930
0.06582 0.01342 0.05495 0.08679 0.29310 0.948 0.098 1239.163 0.01933
0.06590 0.01343 0.05503 0.08690 0.29422 0.756 0.106 1239.193 0.01935
0.06599 0.01345 0.05510 0.08701 0.29533 0.883 0.107 1239.223 0.01937
0.06607 0.01347 0.05517 0.08712 0.29644 0.850 0.105 1239.253 0.01940
0.06616 0.01348 0.05524 0.08724 0.29755 0.830 0.105 1239.283 0.01942
0.06624 0.01350 0.05531 0.08735 0.29866 1.056 0.104 1239.313 0.01945
0.06633 0.01352 0.05538 0.08746 0.29977 0.959 0.105 1239.342 0.01947
0.06641 0.01354 0.05545 0.08757 0.30089 0.952 0.105 1239.372 0.01950
0.06650 0.01355 0.05552 0.08768 0.30200 0.789 0.108 1239.402 0.01952
0.06658 0.01357 0.05559 0.08780 0.30311 1.031 0.109 1239.432 0.01955
0.06667 0.01359 0.05566 0.08791 0.30422 0.946 0.103 1239.462 0.01957
0.06675 0.01361 0.05573 0.08802 0.30533 1.060 0.104 1239.492 0.01960
0.06684 0.01362 0.05581 0.08813 0.30644 1.092 0.105 1239.522 0.01962
0.06692 0.01364 0.05588 0.08824 0.30756 0.914 0.103 1239.552 0.01964
0.06701 0.01366 0.05595 0.08836 0.30867 0.944 0.104 1239.581 0.01967
0.06709 0.01367 0.05602 0.08847 0.30978 1.077 0.110 1239.611 0.01969
0.06718 0.01369 0.05609 0.08858 0.31089 1.026 0.108 1239.641 0.01972
0.06726 0.01371 0.05616 0.08869 0.31200 1.138 0.113 1239.671 0.01974
0.06735 0.01373 0.05623 0.08880 0.31312 0.851 0.112 1239.701 0.01977
0.06743 0.01374 0.05630 0.08892 0.31423 1.089 0.105 1239.731 0.01979
0.06752 0.01376 0.05637 0.08903 0.31534 1.110 0.106 1239.761 0.01982
0.06760 0.01378 0.05644 0.08914 0.31645 0.769 0.107 1239.791 0.01984
0.06769 0.01380 0.05651 0.08925 0.31756 0.884 0.107 1239.820 0.01987
