x y z dist_scaled dist_frac flux_norm sig_norm wavelength redshift
0.02891 0.03249 0.03725 0.05726 0.00000 1.105 0.351 1231.245 0.01281
0.02896 0.03255 0.03732 0.05737 0.00110 0.893 0.327 1231.275 0.01284
0.02902 0.03261 0.03739 0.05748 0.00220 0.683 0.301 1231.305 0.01286
0.02908 0.03267 0.03746 0.05759 0.00330 0.949 0.334 1231.335 0.01289
0.02913 0.03274 0.03754 0.05770 0.00440 1.003 0.340 1231.365 0.01291
0.02919 0.03280 0.03761 0.05781 0.00550 0.679 0.301 1231.395 0.01293
0.02924 0.03286 0.03768 0.05792 0.00661 1.108 0.351 1231.425 0.01296
0.02930 0.03293 0.03775 0.05803 0.00771 1.112 0.351 1231.454 0.01298
0.02936 0.03299 0.03782 0.05814 0.00881 1.271 0.368 1231.484 0.01301
0.02941 0.03305 0.03790 0.05826 0.00991 1.060 0.345 1231.514 0.01303
0.02947 0.03312 0.03797 0.05837 0.01101 0.898 0.327 1231.544 0.01306
0.02952 0.03318 0.03804 0.05848 0.01211 0.790 0.315 1231.574 0.01308
0.02958 0.03324 0.03811 0.05859 0.01321 0.469 0.269 1231.604 0.01311
0.02964 0.03330 0.03819 0.05870 0.01431 1.541 0.394 1231.634 0.01313
0.02969 0.03337 0.03826 0.05881 0.01541 0.846 0.323 1231.664 0.01316
0.02975 0.03343 0.03833 0.05892 0.01652 0.792 0.315 1231.693 0.01318
0.02980 0.03349 0.03840 0.05903 0.01762 1.275 0.370 1231.723 0.01321
0.02986 0.03356 0.03847 0.05914 0.01872 1.225 0.363 1231.753 0.01323
0.02992 0.03362 0.03855 0.05925 0.01982 0.631 0.294 1231.783 0.01325
0.02997 0.03368 0.03862 0.05936 0.02092 1.223 0.365 1231.813 0.01328
0.03003 0.03374 0.03869 0.05948 0.02202 1.279 0.370 1231.843 0.01330
0.03008 0.03381 0.03876 0.05959 0.02312 1.010 0.341 1231.873 0.01333
0.03014 0.03387 0.03883 0.05970 0.02423 0.847 0.323 1231.903 0.01335
0.03020 0.03393 0.03891 0.05981 0.02533 1.062 0.349 1231.932 0.01338
0.03025 0.03400 0.03898 0.05992 0.02643 1.008 0.341 1231.962 0.01340
0.03031 0.03406 0.03905 0.06003 0.02753 0.790 0.315 1231.992 0.01343
0.03036 0.03412 0.03912 0.06014 0.02863 1.065 0.349 1232.022 0.01345
0.03042 0.03419 0.03920 0.06025 0.02973 1.009 0.340 1232.052 0.01348
0.03048 0.03425 0.03927 0.06036 0.03084 1.012 0.343 1232.082 0.01350
0.03053 0.03431 0.03934 0.06047 0.03194 1.340 0.377 1232.112 0.01352
0.03059 0.03437 0.03941 0.06059 0.03304 0.579 0.289 1232.142 0.01355
0.03065 0.03444 0.03948 0.06070 0.03414 0.854 0.323 1232.171 0.01357
0.03070 0.03450 0.03956 0.06081 0.03524 0.525 0.283 1232.201 0.01360
0.03076 0.03456 0.03963 0.06092 0.03635 0.742 0.310 1232.231 0.01362
0.03081 0.03463 0.03970 0.06103 0.03745 1.174 0.361 1232.261 0.01365
0.03087 0.03469 0.03977 0.06114 0.03855 0.851 0.325 1232.291 0.01367
0.03093 0.03475 0.03985 0.06125 0.03965 1.067 0.350 1232.321 0.01370
0.03098 0.03482 0.03992 0.06136 0.04075 1.341 0.377 1232.351 0.01372
0.03104 0.03488 0.03999 0.06147 0.04186 0.634 0.299 1232.381 0.01375
0.03109 0.03494 0.04006 0.06159 0.04296 1.015 0.345 1232.411 0.01377
0.03115 0.03500 0.04013 0.06170 0.04406 0.635 0.297 1232.440 0.01380
0.03121 0.03507 0.04021 0.06181 0.04516 0.966 0.338 1232.470 0.01382
0.03126 0.03513 0.04028 0.06192 0.04627 1.076 0.350 1232.500 0.01384
0.03132 0.03519 0.04035 0.06203 0.04737 1.022 0.342 1232.530 0.01387
0.03137 0.03526 0.04042 0.06214 0.04847 1.244 0.368 1232.560 0.01389
0.03143 0.03532 0.04050 0.06225 0.04957 0.479 0.275 1232.590 0.01392
0.03149 0.03538 0.04057 0.06236 0.05068 0.535 0.284 1232.620 0.01394
0.03154 0.03545 0.04064 0.06247 0.05178 1.358 0.379 1232.650 0.01397
0.03160 0.03551 0.04071 0.06258 0.05288 0.535 0.283 1232.679 0.01399
0.03165 0.03557 0.04079 0.06270 0.05398 0.645 0.300 1232.709 0.01402
0.03171 0.03563 0.04086 0.06281 0.05509 0.480 0.275 1232.739 0.01404
0.03177 0.03570 0.04093 0.06292 0.05619 0.702 0.308 1232.769 0.01407
0.03182 0.03576 0.04100 0.06303 0.05729 1.034 0.345 1232.799 0.01409
0.03188 0.03582 0.04107 0.06314 0.05840 0.996 0.366 1232.829 0.01411
0.03193 0.03589 0.04115 0.06325 0.05950 0.815 0.366 1232.859 0.01414
0.03199 0.03595 0.04122 0.06336 0.06060 1.145 0.358 1232.889 0.01416
0.03205 0.03601 0.04129 0.06347 0.06170 0.544 0.285 1232.918 0.01419
0.03210 0.03608 0.04136 0.06358 0.06281 0.695 0.328 1232.948 0.01421
0.03216 0.03614 0.04144 0.06370 0.06391 1.138 0.353 1232.978 0.01424
0.03222 0.03620 0.04151 0.06381 0.06501 1.342 0.376 1233.008 0.01426
0.03227 0.03627 0.04158 0.06392 0.06612 0.778 0.314 1233.038 0.01429
0.03233 0.03633 0.04165 0.06403 0.06722 0.862 0.322 1233.068 0.01431
0.03238 0.03639 0.04172 0.06414 0.06832 0.156 0.218 1233.098 0.01434
0.03244 0.03645 0.04180 0.06425 0.06943 0.721 0.308 1233.128 0.01436
0.03250 0.03652 0.04187 0.06436 0.07053 0.970 0.336 1233.157 0.01439
0.03255 0.03658 0.04194 0.06447 0.07163 0.758 0.307 1233.187 0.01441
0.03261 0.03664 0.04201 0.06459 0.07274 0.634 0.293 1233.217 0.01443
0.03266 0.03671 0.04209 0.06470 0.07384 1.038 0.347 1233.247 0.01446
0.03272 0.03677 0.04216 0.06481 0.07494 0.720 0.307 1233.277 0.01448
0.03278 0.03683 0.04223 0.06492 0.07605 0.908 0.329 1233.307 0.01451
0.03283 0.03690 0.04230 0.06503 0.07715 0.776 0.315 1233.337 0.01453
0.03289 0.03696 0.04238 0.06514 0.07825 0.670 0.302 1233.367 0.01456
0.03295 0.03702 0.04245 0.06525 0.07936 1.200 0.365 1233.397 0.01458
0.03300 0.03709 0.04252 0.06536 0.08046 0.621 0.295 1233.426 0.01461
0.03306 0.03715 0.04259 0.06547 0.08156 1.116 0.355 1233.456 0.01463
0.03311 0.03721 0.04267 0.06559 0.08267 1.210 0.366 1233.486 0.01466
0.03317 0.03727 0.04274 0.06570 0.08377 0.654 0.303 1233.516 0.01468
0.03323 0.03734 0.04281 0.06581 0.08488 0.874 0.331 1233.546 0.01470
0.03328 0.03740 0.04288 0.06592 0.08598 0.654 0.303 1233.576 0.01473
0.03334 0.03746 0.04295 0.06603 0.08708 0.987 0.342 1233.606 0.01475
0.03339 0.03753 0.04303 0.06614 0.08819 0.762 0.315 1233.636 0.01478
0.03345 0.03759 0.04310 0.06625 0.08929 0.598 0.295 1233.665 0.01480
0.03351 0.03765 0.04317 0.06636 0.09040 1.157 0.362 1233.695 0.01483
0.03356 0.03772 0.04324 0.06648 0.09150 1.156 0.362 1233.725 0.01485
0.03362 0.03778 0.04332 0.06659 0.09260 0.767 0.317 1233.755 0.01488
0.03368 0.03784 0.04339 0.06670 0.09371 0.767 0.318 1233.785 0.01490
0.03373 0.03791 0.04346 0.06681 0.09481 0.991 0.344 1233.815 0.01493
0.03379 0.03797 0.04353 0.06692 0.09592 1.041 0.351 1233.845 0.01495
0.03384 0.03803 0.04361 0.06703 0.09702 0.881 0.331 1233.875 0.01497
0.03390 0.03810 0.04368 0.06714 0.09813 1.268 0.372 1233.904 0.01500
0.03396 0.03816 0.04375 0.06725 0.09923 0.768 0.315 1233.934 0.01502
0.03401 0.03822 0.04382 0.06737 0.10033 0.766 0.317 1233.964 0.01505
0.03407 0.03828 0.04390 0.06748 0.10144 0.822 0.325 1233.994 0.01507
0.03412 0.03835 0.04397 0.06759 0.10254 1.163 0.359 1234.024 0.01510
0.03418 0.03841 0.04404 0.06770 0.10365 0.934 0.339 1234.054 0.01512
0.03424 0.03847 0.04411 0.06781 0.10475 0.545 0.289 1234.084 0.01515
0.03429 0.03854 0.04418 0.06792 0.10586 1.273 0.375 1234.114 0.01517
0.03435 0.03860 0.04426 0.06803 0.10696 0.770 0.319 1234.143 0.01520
0.03441 0.03866 0.04433 0.06814 0.10807 1.214 0.367 1234.173 0.01522
0.03446 0.03873 0.04440 0.06826 0.10917 0.713 0.312 1234.203 0.01525
0.03452 0.03879 0.04447 0.06837 0.11028 1.331 0.380 1234.233 0.01527
0.03457 0.03885 0.04455 0.06848 0.11138 1.273 0.375 1234.263 0.01529
0.03463 0.03892 0.04462 0.06859 0.11248 0.993 0.345 1234.293 0.01532
0.03469 0.03898 0.04469 0.06870 0.11359 1.331 0.380 1234.323 0.01534
0.03474 0.03904 0.04476 0.06881 0.11469 0.825 0.326 1234.353 0.01537
0.03480 0.03911 0.04484 0.06892 0.11580 0.882 0.333 1234.383 0.01539
0.03486 0.03917 0.04491 0.06904 0.11690 0.939 0.340 1234.412 0.01542
0.03491 0.03923 0.04498 0.06915 0.11801 0.993 0.345 1234.442 0.01544
0.03497 0.03929 0.04505 0.06926 0.11911 0.882 0.334 1234.472 0.01547
0.03502 0.03936 0.04513 0.06937 0.12022 1.108 0.359 1234.502 0.01549
0.03508 0.03942 0.04520 0.06948 0.12132 1.166 0.364 1234.532 0.01552
0.03514 0.03948 0.04527 0.06959 0.12243 0.943 0.340 1234.562 0.01554
0.03519 0.03955 0.04534 0.06970 0.12354 1.055 0.353 1234.592 0.01556
0.03525 0.03961 0.04542 0.06981 0.12464 0.551 0.289 1234.622 0.01559
0.03530 0.03967 0.04549 0.06993 0.12575 0.608 0.298 1234.651 0.01561
0.03536 0.03974 0.04556 0.07004 0.12685 1.450 0.393 1234.681 0.01564
0.03542 0.03980 0.04563 0.07015 0.12796 1.506 0.399 1234.711 0.01566
0.03547 0.03986 0.04571 0.07026 0.12906 0.835 0.328 1234.741 0.01569
0.03553 0.03993 0.04578 0.07037 0.13017 1.229 0.372 1234.771 0.01571
0.03559 0.03999 0.04585 0.07048 0.13127 1.063 0.351 1234.801 0.01574
0.03564 0.04005 0.04592 0.07059 0.13238 0.950 0.340 1234.831 0.01576
0.03570 0.04012 0.04600 0.07071 0.13348 0.948 0.341 1234.861 0.01579
0.03575 0.04018 0.04607 0.07082 0.13459 0.946 0.341 1234.890 0.01581
0.03581 0.04024 0.04614 0.07093 0.13570 0.833 0.324 1234.920 0.01584
0.03587 0.04031 0.04621 0.07104 0.13680 0.947 0.342 1234.950 0.01586
0.03592 0.04037 0.04629 0.07115 0.13791 1.005 0.348 1234.980 0.01588
0.03598 0.04043 0.04636 0.07126 0.13901 1.007 0.348 1235.010 0.01591
0.03604 0.04050 0.04643 0.07137 0.14012 1.120 0.359 1235.040 0.01593
0.03609 0.04056 0.04650 0.07149 0.14122 1.233 0.372 1235.070 0.01596
0.03615 0.04062 0.04658 0.07160 0.14233 0.669 0.307 1235.100 0.01598
0.03620 0.04069 0.04665 0.07171 0.14344 0.726 0.315 1235.129 0.01601
0.03626 0.04075 0.04672 0.07182 0.14454 0.782 0.321 1235.159 0.01603
0.03632 0.04081 0.04679 0.07193 0.14565 1.174 0.367 1235.189 0.01606
0.03637 0.04087 0.04687 0.07204 0.14675 1.179 0.367 1235.219 0.01608
0.03643 0.04094 0.04694 0.07215 0.14786 1.121 0.360 1235.249 0.01611
0.03649 0.04100 0.04701 0.07227 0.14897 0.839 0.329 1235.279 0.01613
0.03654 0.04106 0.04708 0.07238 0.15007 1.292 0.379 1235.309 0.01615
0.03660 0.04113 0.04716 0.07249 0.15118 0.443 0.272 1235.339 0.01618
0.03665 0.04119 0.04723 0.07260 0.15228 1.234 0.373 1235.369 0.01620
0.03671 0.04125 0.04730 0.07271 0.15339 0.895 0.336 1235.398 0.01623
0.03677 0.04132 0.04737 0.07282 0.15450 1.295 0.377 1235.428 0.01625
0.03682 0.04138 0.04745 0.07293 0.15560 1.351 0.385 1235.458 0.01628
0.03688 0.04144 0.04752 0.07305 0.15671 1.122 0.361 1235.488 0.01630
0.03694 0.04151 0.04759 0.07316 0.15782 1.063 0.355 1235.518 0.01633
0.03699 0.04157 0.04766 0.07327 0.15892 0.610 0.299 1235.548 0.01635
0.03705 0.04163 0.04774 0.07338 0.16003 0.950 0.343 1235.578 0.01638
0.03710 0.04170 0.04781 0.07349 0.16114 0.213 0.234 1235.608 0.01640
0.03716 0.04176 0.04788 0.07360 0.16224 0.555 0.293 1235.637 0.01643
0.03722 0.04182 0.04795 0.07371 0.16335 0.212 0.236 1235.667 0.01645
0.03727 0.04189 0.04803 0.07383 0.16446 0.268 0.246 1235.697 0.01647
0.03733 0.04195 0.04810 0.07394 0.16556 0.161 0.225 1235.727 0.01650
0.03739 0.04201 0.04817 0.07405 0.16667 0.042 0.196 1235.757 0.01652
0.03744 0.04208 0.04824 0.07416 0.16778 -0.015 0.180 1235.787 0.01655
0.03750 0.04214 0.04832 0.07427 0.16888 0.041 0.196 1235.817 0.01657
0.03756 0.04220 0.04839 0.07438 0.16999 -0.016 0.180 1235.847 0.01660
0.03761 0.04227 0.04846 0.07450 0.17110 -0.014 0.180 1235.876 0.01662
0.03767 0.04233 0.04853 0.07461 0.17220 0.042 0.196 1235.906 0.01665
0.03772 0.04239 0.04861 0.07472 0.17331 0.055 0.196 1235.936 0.01667
0.03778 0.04246 0.04868 0.07483 0.17442 -0.015 0.180 1235.966 0.01670
0.03784 0.04252 0.04875 0.07494 0.17553 -0.015 0.180 1235.996 0.01672
0.03789 0.04258 0.04882 0.07505 0.17663 0.058 0.196 1236.026 0.01674
0.03795 0.04265 0.04890 0.07516 0.17774 -0.016 0.180 1236.056 0.01677
0.03801 0.04271 0.04897 0.07528 0.17885 -0.016 0.180 1236.086 0.01679
0.03806 0.04277 0.04904 0.07539 0.17995 -0.015 0.180 1236.115 0.01682
0.03812 0.04284 0.04911 0.07550 0.18106 0.099 0.211 1236.145 0.01684
0.03817 0.04290 0.04919 0.07561 0.18217 -0.014 0.180 1236.175 0.01687
0.03823 0.04296 0.04926 0.07572 0.18328 -0.014 0.180 1236.205 0.01689
0.03829 0.04303 0.04933 0.07583 0.18438 -0.013 0.180 1236.235 0.01692
0.03834 0.04309 0.04940 0.07595 0.18549 0.044 0.197 1236.265 0.01694
0.03840 0.04315 0.04948 0.07606 0.18660 0.112 0.212 1236.295 0.01697
0.03846 0.04322 0.04955 0.07617 0.18771 0.115 0.212 1236.325 0.01699
0.03851 0.04328 0.04962 0.07628 0.18881 -0.015 0.181 1236.355 0.01701
0.03857 0.04334 0.04969 0.07639 0.18992 0.346 0.257 1236.384 0.01704
0.03863 0.04341 0.04977 0.07650 0.19103 0.306 0.245 1236.414 0.01706
0.03868 0.04347 0.04984 0.07661 0.19214 0.568 0.294 1236.444 0.01709
0.03874 0.04353 0.04991 0.07673 0.19324 0.542 0.285 1236.474 0.01711
0.03879 0.04360 0.04998 0.07684 0.19435 0.885 0.339 1236.504 0.01714
0.03885 0.04366 0.05006 0.07695 0.19546 0.895 0.338 1236.534 0.01716
0.03891 0.04372 0.05013 0.07706 0.19657 0.647 0.308 1236.564 0.01719
0.03896 0.04379 0.05020 0.07717 0.19768 0.850 0.330 1236.594 0.01721
0.03902 0.04385 0.05028 0.07728 0.19878 0.987 0.352 1236.623 0.01724
0.03908 0.04391 0.05035 0.07740 0.19989 0.514 0.286 1236.653 0.01726
0.03913 0.04398 0.05042 0.07751 0.20100 1.089 0.358 1236.683 0.01729
0.03919 0.04404 0.05049 0.07762 0.20211 1.073 0.358 1236.713 0.01731
0.03925 0.04410 0.05057 0.07773 0.20322 1.073 0.357 1236.743 0.01733
0.03930 0.04417 0.05064 0.07784 0.20432 1.585 0.409 1236.773 0.01736
0.03936 0.04423 0.05071 0.07795 0.20543 0.614 0.303 1236.803 0.01738
0.03941 0.04429 0.05078 0.07807 0.20654 0.788 0.325 1236.833 0.01741
0.03947 0.04436 0.05086 0.07818 0.20765 0.787 0.325 1236.862 0.01743
0.03953 0.04442 0.05093 0.07829 0.20876 0.845 0.332 1236.892 0.01746
0.03958 0.04448 0.05100 0.07840 0.20987 0.961 0.345 1236.922 0.01748
0.03964 0.04455 0.05107 0.07851 0.21097 1.252 0.376 1236.952 0.01751
0.03970 0.04461 0.05115 0.07862 0.21208 0.788 0.325 1236.982 0.01753
0.03975 0.04467 0.05122 0.07874 0.21319 0.675 0.310 1237.012 0.01756
0.03981 0.04474 0.05129 0.07885 0.21430 1.247 0.377 1237.042 0.01758
0.03987 0.04480 0.05136 0.07896 0.21541 0.792 0.324 1237.072 0.01760
0.03992 0.04486 0.05144 0.07907 0.21652 1.021 0.352 1237.101 0.01763
0.03998 0.04493 0.05151 0.07918 0.21762 1.021 0.352 1237.131 0.01765
0.04003 0.04499 0.05158 0.07929 0.21873 0.851 0.333 1237.161 0.01768
0.04009 0.04505 0.05166 0.07941 0.21984 1.023 0.351 1237.191 0.01770
0.04015 0.04512 0.05173 0.07952 0.22095 0.905 0.339 1237.221 0.01773
0.04020 0.04518 0.05180 0.07963 0.22206 1.078 0.359 1237.251 0.01775
0.04026 0.04524 0.05187 0.07974 0.22317 0.679 0.311 1237.281 0.01778
0.04032 0.04531 0.05195 0.07985 0.22428 1.255 0.377 1237.311 0.01780
0.04037 0.04537 0.05202 0.07996 0.22539 1.193 0.371 1237.341 0.01783
0.04043 0.04543 0.05209 0.08008 0.22650 1.252 0.377 1237.370 0.01785
0.04049 0.04550 0.05216 0.08019 0.22760 0.912 0.340 1237.400 0.01788
0.04054 0.04556 0.05224 0.08030 0.22871 1.083 0.359 1237.430 0.01790
0.04060 0.04562 0.05231 0.08041 0.22982 1.255 0.376 1237.460 0.01792
0.04066 0.04569 0.05238 0.08052 0.23093 1.198 0.371 1237.490 0.01795
0.04071 0.04575 0.05245 0.08064 0.23204 0.971 0.345 1237.520 0.01797
0.04077 0.04581 0.05253 0.08075 0.23315 0.509 0.287 1237.550 0.01800
0.04082 0.04588 0.05260 0.08086 0.23426 1.142 0.365 1237.580 0.01802
0.04088 0.04594 0.05267 0.08097 0.23537 1.083 0.359 1237.609 0.01805
0.04094 0.04600 0.05275 0.08108 0.23648 0.853 0.331 1237.639 0.01807
0.04099 0.04607 0.05282 0.08119 0.23759 0.799 0.325 1237.669 0.01810
0.04105 0.04613 0.05289 0.08131 0.23870 1.546 0.405 1237.699 0.01812
0.04111 0.04619 0.05296 0.08142 0.23981 0.510 0.286 1237.729 0.01815
0.04116 0.04626 0.05304 0.08153 0.24092 0.680 0.309 1237.759 0.01817
0.04122 0.04632 0.05311 0.08164 0.24202 1.200 0.369 1237.789 0.01819
0.04128 0.04638 0.05318 0.08175 0.24313 1.198 0.370 1237.819 0.01822
0.04133 0.04645 0.05325 0.08186 0.24424 0.508 0.286 1237.848 0.01824
0.04139 0.04651 0.05333 0.08198 0.24535 0.569 0.292 1237.878 0.01827
0.04145 0.04657 0.05340 0.08209 0.24646 0.857 0.333 1237.908 0.01829
0.04150 0.04664 0.05347 0.08220 0.24757 0.800 0.313 1237.938 0.01832
0.04156 0.04670 0.05355 0.08231 0.24868 0.776 0.306 1237.968 0.01834
0.04161 0.04676 0.05362 0.08242 0.24979 0.764 0.292 1237.998 0.01837
0.04167 0.04683 0.05369 0.08254 0.25090 0.857 0.333 1238.028 0.01839
0.04173 0.04689 0.05376 0.08265 0.25201 1.031 0.353 1238.058 0.01842
0.04178 0.04696 0.05384 0.08276 0.25312 1.607 0.410 1238.087 0.01844
0.04184 0.04702 0.05391 0.08287 0.25423 1.146 0.365 1238.117 0.01847
0.04190 0.04708 0.05398 0.08298 0.25534 0.453 0.275 1238.147 0.01849
0.04195 0.04715 0.05405 0.08309 0.25645 1.205 0.372 1238.177 0.01851
0.04201 0.04721 0.05413 0.08321 0.25756 1.322 0.384 1238.207 0.01854
0.04207 0.04727 0.05420 0.08332 0.25867 1.260 0.377 1238.237 0.01856
0.04212 0.04734 0.05427 0.08343 0.25978 1.144 0.365 1238.267 0.01859
0.04218 0.04740 0.05435 0.08354 0.26089 0.916 0.337 1238.297 0.01861
0.04224 0.04746 0.05442 0.08365 0.26200 0.917 0.339 1238.327 0.01864
0.04229 0.04753 0.05449 0.08377 0.26311 0.684 0.310 1238.356 0.01866
0.04235 0.04759 0.05456 0.08388 0.26422 1.431 0.395 1238.386 0.01869
0.04241 0.04765 0.05464 0.08399 0.26533 0.798 0.327 1238.416 0.01871
0.04246 0.04772 0.05471 0.08410 0.26644 0.857 0.333 1238.446 0.01874
0.04252 0.04778 0.05478 0.08421 0.26755 0.800 0.327 1238.476 0.01876
0.04257 0.04784 0.05486 0.08432 0.26866 0.974 0.347 1238.506 0.01878
0.04263 0.04791 0.05493 0.08444 0.26978 1.377 0.389 1238.536 0.01881
0.04269 0.04797 0.05500 0.08455 0.27089 0.857 0.334 1238.566 0.01883
0.04274 0.04803 0.05507 0.08466 0.27200 0.742 0.320 1238.595 0.01886
0.04280 0.04810 0.05515 0.08477 0.27311 0.569 0.297 1238.625 0.01888
0.04286 0.04816 0.05522 0.08488 0.27422 0.801 0.326 1238.655 0.01891
0.04291 0.04822 0.05529 0.08500 0.27533 1.261 0.377 1238.685 0.01893
0.04297 0.04829 0.05536 0.08511 0.27644 0.916 0.340 1238.715 0.01896
0.04303 0.04835 0.05544 0.08522 0.27755 1.088 0.359 1238.745 0.01898
0.04308 0.04841 0.05551 0.08533 0.27866 0.975 0.347 1238.775 0.01901
0.04314 0.04848 0.05558 0.08544 0.27977 0.921 0.321 1238.805 0.01903
0.04320 0.04854 0.05566 0.08556 0.28088 1.031 0.354 1238.834 0.01905
0.04325 0.04861 0.05573 0.08567 0.28199 0.860 0.334 1238.864 0.01908
0.04331 0.04867 0.05580 0.08578 0.28310 0.994 0.336 1238.894 0.01910
0.04337 0.04873 0.05587 0.08589 0.28422 0.414 0.245 1238.924 0.01913
0.04342 0.04880 0.05595 0.08600 0.28533 0.829 0.317 1238.954 0.01915
0.04348 0.04886 0.05602 0.08612 0.28644 0.866 0.315 1238.984 0.01918
0.04354 0.04892 0.05609 0.08623 0.28755 0.827 0.296 1239.014 0.01920
0.04359 0.04899 0.05617 0.08634 0.28866 0.947 0.324 1239.044 0.01923
0.04365 0.04905 0.05624 0.08645 0.28977 1.506 0.405 1239.073 0.01925
0.04370 0.04911 0.05631 0.08656 0.29088 0.659 0.312 1239.103 0.01928
0.04376 0.04918 0.05638 0.08668 0.29199 1.201 0.372 1239.133 0.01930
0.04382 0.04924 0.05646 0.08679 0.29310 0.990 0.347 1239.163 0.01933
0.04387 0.04930 0.05653 0.08690 0.29422 1.036 0.354 1239.193 0.01935
0.04393 0.04937 0.05660 0.08701 0.29533 1.053 0.353 1239.223 0.01937
0.04399 0.04943 0.05668 0.08712 0.29644 1.005 0.348 1239.253 0.01940
0.04404 0.04949 0.05675 0.08724 0.29755 1.117 0.358 1239.283 0.01942
0.04410 0.04956 0.05682 0.08735 0.29866 0.820 0.326 1239.313 0.01945
0.04416 0.04962 0.05689 0.08746 0.29977 1.245 0.372 1239.342 0.01947
0.04421 0.04969 0.05697 0.08757 0.30089 1.170 0.366 1239.372 0.01950
0.04427 0.04975 0.05704 0.08768 0.30200 1.088 0.360 1239.402 0.01952
0.04433 0.04981 0.05711 0.08780 0.30311 1.202 0.371 1239.432 0.01955
0.04438 0.04988 0.05719 0.08791 0.30422 0.913 0.341 1239.462 0.01957
0.04444 0.04994 0.05726 0.08802 0.30533 1.259 0.377 1239.492 0.01960
0.04450 0.05000 0.05733 0.08813 0.30644 0.914 0.340 1239.522 0.01962
0.04455 0.05007 0.05740 0.08824 0.30756 0.969 0.346 1239.552 0.01964
0.04461 0.05013 0.05748 0.08836 0.30867 0.794 0.324 1239.581 0.01967
0.04467 0.05019 0.05755 0.08847 0.30978 1.022 0.353 1239.611 0.01969
0.04472 0.05026 0.05762 0.08858 0.31089 0.908 0.341 1239.641 0.01972
0.04478 0.05032 0.05770 0.08869 0.31200 0.676 0.311 1239.671 0.01974
0.04484 0.05038 0.05777 0.08880 0.31312 0.910 0.341 1239.701 0.01977
0.04489 0.05045 0.05784 0.08892 0.31423 1.252 0.377 1239.731 0.01979
0.04495 0.05051 0.05791 0.08903 0.31534 0.619 0.304 1239.761 0.01982
0.04501 0.05058 0.05799 0.08914 0.31645 1.020 0.353 1239.791 0.01984
0.04506 0.05064 0.05806 0.08925 0.31756 1.137 0.366 1239.820 0.01987
