x y z dist_scaled dist_frac flux_norm sig_norm wavelength redshift
0.02760 -0.01241 0.04861 0.05726 0.00000 1.164 0.285 1231.245 0.01281
0.02765 -0.01243 0.04870 0.05737 0.00110 0.896 0.256 1231.275 0.01284
0.02771 -0.01246 0.04879 0.05748 0.00220 1.355 0.301 1231.305 0.01286
0.02776 -0.01248 0.04889 0.05759 0.00330 0.859 0.257 1231.335 0.01289
0.02781 -0.01251 0.04898 0.05770 0.00440 1.049 0.268 1231.365 0.01291
0.02787 -0.01253 0.04908 0.05781 0.00550 0.743 0.237 1231.395 0.01293
0.02792 -0.01256 0.04917 0.05792 0.00661 1.013 0.272 1231.425 0.01296
0.02798 -0.01258 0.04926 0.05803 0.00771 0.670 0.241 1231.454 0.01298
0.02803 -0.01260 0.04936 0.05814 0.00881 0.746 0.249 1231.484 0.01301
0.02808 -0.01263 0.04945 0.05826 0.00991 0.708 0.241 1231.514 0.01303
0.02814 -0.01265 0.04955 0.05837 0.01101 1.282 0.298 1231.544 0.01306
0.02819 -0.01268 0.04964 0.05848 0.01211 0.710 0.245 1231.574 0.01308
0.02824 -0.01270 0.04974 0.05859 0.01321 0.980 0.272 1231.604 0.01311
0.02830 -0.01272 0.04983 0.05870 0.01431 0.864 0.260 1231.634 0.01313
0.02835 -0.01275 0.04992 0.05881 0.01541 1.361 0.305 1231.664 0.01316
0.02840 -0.01277 0.05002 0.05892 0.01652 0.979 0.272 1231.693 0.01318
0.02846 -0.01280 0.05011 0.05903 0.01762 1.400 0.308 1231.723 0.01321
0.02851 -0.01282 0.05021 0.05914 0.01872 0.636 0.237 1231.753 0.01323
0.02856 -0.01284 0.05030 0.05925 0.01982 0.751 0.250 1231.783 0.01325
0.02862 -0.01287 0.05040 0.05936 0.02092 1.403 0.308 1231.813 0.01328
0.02867 -0.01289 0.05049 0.05948 0.02202 1.211 0.293 1231.843 0.01330
0.02872 -0.01292 0.05058 0.05959 0.02312 0.903 0.265 1231.873 0.01333
0.02878 -0.01294 0.05068 0.05970 0.02423 0.939 0.263 1231.903 0.01335
0.02883 -0.01296 0.05077 0.05981 0.02533 0.592 0.219 1231.932 0.01338
0.02888 -0.01299 0.05087 0.05992 0.02643 0.973 0.262 1231.962 0.01340
0.02894 -0.01301 0.05096 0.06003 0.02753 1.125 0.276 1231.992 0.01343
0.02899 -0.01304 0.05105 0.06014 0.02863 0.780 0.241 1232.022 0.01345
0.02905 -0.01306 0.05115 0.06025 0.02973 1.086 0.272 1232.052 0.01348
0.02910 -0.01308 0.05124 0.06036 0.03084 1.199 0.323 1232.082 0.01350
0.02915 -0.01311 0.05134 0.06047 0.03194 0.968 0.262 1232.112 0.01352
0.02921 -0.01313 0.05143 0.06059 0.03304 0.778 0.242 1232.142 0.01355
0.02926 -0.01316 0.05153 0.06070 0.03414 0.957 0.290 1232.171 0.01357
0.02931 -0.01318 0.05162 0.06081 0.03524 1.085 0.273 1232.201 0.01360
0.02937 -0.01320 0.05171 0.06092 0.03635 0.952 0.282 1232.231 0.01362
0.02942 -0.01323 0.05181 0.06103 0.03745 1.007 0.266 1232.261 0.01365
0.02947 -0.01325 0.05190 0.06114 0.03855 1.199 0.283 1232.291 0.01367
0.02953 -0.01328 0.05200 0.06125 0.03965 0.966 0.262 1232.321 0.01370
0.02958 -0.01330 0.05209 0.06136 0.04075 0.964 0.262 1232.351 0.01372
0.02963 -0.01332 0.05219 0.06147 0.04186 1.038 0.269 1232.381 0.01375
0.02969 -0.01335 0.05228 0.06159 0.04296 0.653 0.229 1232.411 0.01377
0.02974 -0.01337 0.05237 0.06170 0.04406 0.883 0.254 1232.440 0.01380
0.02979 -0.01340 0.05247 0.06181 0.04516 1.191 0.284 1232.470 0.01382
0.02985 -0.01342 0.05256 0.06192 0.04627 1.233 0.287 1232.500 0.01384
0.02990 -0.01345 0.05266 0.06203 0.04737 0.864 0.258 1232.530 0.01387
0.02996 -0.01347 0.05275 0.06214 0.04847 1.179 0.287 1232.560 0.01389
0.03001 -0.01349 0.05285 0.06225 0.04957 0.805 0.249 1232.590 0.01392
0.03006 -0.01352 0.05294 0.06236 0.05068 1.302 0.297 1232.620 0.01394
0.03012 -0.01354 0.05303 0.06247 0.05178 1.200 0.287 1232.650 0.01397
0.03017 -0.01357 0.05313 0.06258 0.05288 1.071 0.277 1232.679 0.01399
0.03022 -0.01359 0.05322 0.06270 0.05398 0.890 0.259 1232.709 0.01402
0.03028 -0.01361 0.05332 0.06281 0.05509 1.221 0.290 1232.739 0.01404
0.03033 -0.01364 0.05341 0.06292 0.05619 1.098 0.277 1232.769 0.01407
0.03038 -0.01366 0.05351 0.06303 0.05729 1.133 0.279 1232.799 0.01409
0.03044 -0.01369 0.05360 0.06314 0.05840 0.826 0.255 1232.829 0.01411
0.03049 -0.01371 0.05369 0.06325 0.05950 1.401 0.306 1232.859 0.01414
0.03054 -0.01373 0.05379 0.06336 0.06060 1.635 0.321 1232.889 0.01416
0.03060 -0.01376 0.05388 0.06347 0.06170 1.149 0.283 1232.918 0.01419
0.03065 -0.01378 0.05398 0.06358 0.06281 1.175 0.287 1232.948 0.01421
0.03071 -0.01381 0.05407 0.06370 0.06391 1.354 0.300 1232.978 0.01424
0.03076 -0.01383 0.05417 0.06381 0.06501 0.629 0.234 1233.008 0.01426
0.03081 -0.01385 0.05426 0.06392 0.06612 1.316 0.298 1233.038 0.01429
0.03087 -0.01388 0.05435 0.06403 0.06722 0.790 0.251 1233.068 0.01431
0.03092 -0.01390 0.05445 0.06414 0.06832 0.973 0.263 1233.098 0.01434
0.03097 -0.01393 0.05454 0.06425 0.06943 0.972 0.263 1233.128 0.01436
0.03103 -0.01395 0.05464 0.06436 0.07053 1.280 0.291 1233.157 0.01439
0.03108 -0.01398 0.05473 0.06447 0.07163 1.202 0.284 1233.187 0.01441
0.03113 -0.01400 0.05483 0.06459 0.07274 0.775 0.243 1233.217 0.01443
0.03119 -0.01402 0.05492 0.06470 0.07384 1.125 0.277 1233.247 0.01446
0.03124 -0.01405 0.05502 0.06481 0.07494 0.972 0.262 1233.277 0.01448
0.03129 -0.01407 0.05511 0.06492 0.07605 1.167 0.281 1233.307 0.01451
0.03135 -0.01410 0.05520 0.06503 0.07715 1.090 0.274 1233.337 0.01453
0.03140 -0.01412 0.05530 0.06514 0.07825 1.208 0.284 1233.367 0.01456
0.03146 -0.01414 0.05539 0.06525 0.07936 0.939 0.259 1233.397 0.01458
0.03151 -0.01417 0.05549 0.06536 0.08046 0.902 0.255 1233.426 0.01461
0.03156 -0.01419 0.05558 0.06547 0.08156 1.136 0.281 1233.456 0.01463
0.03162 -0.01422 0.05568 0.06559 0.08267 1.212 0.284 1233.486 0.01466
0.03167 -0.01424 0.05577 0.06570 0.08377 0.904 0.259 1233.516 0.01468
0.03172 -0.01426 0.05586 0.06581 0.08488 1.019 0.267 1233.546 0.01470
0.03178 -0.01429 0.05596 0.06592 0.08598 0.980 0.263 1233.576 0.01473
0.03183 -0.01431 0.05605 0.06603 0.08708 1.211 0.284 1233.606 0.01475
0.03188 -0.01434 0.05615 0.06614 0.08819 0.946 0.270 1233.636 0.01478
0.03194 -0.01436 0.05624 0.06625 0.08929 1.101 0.285 1233.665 0.01480
0.03199 -0.01438 0.05634 0.06636 0.09040 0.871 0.263 1233.695 0.01483
0.03204 -0.01441 0.05643 0.06648 0.09150 0.875 0.263 1233.725 0.01485
0.03210 -0.01443 0.05653 0.06659 0.09260 1.222 0.295 1233.755 0.01488
0.03215 -0.01446 0.05662 0.06670 0.09371 0.874 0.263 1233.785 0.01490
0.03221 -0.01448 0.05671 0.06681 0.09481 1.107 0.284 1233.815 0.01493
0.03226 -0.01451 0.05681 0.06692 0.09592 1.185 0.292 1233.845 0.01495
0.03231 -0.01453 0.05690 0.06703 0.09702 1.066 0.280 1233.875 0.01497
0.03237 -0.01455 0.05700 0.06714 0.09813 0.911 0.267 1233.904 0.01500
0.03242 -0.01458 0.05709 0.06725 0.09923 0.872 0.263 1233.934 0.01502
0.03247 -0.01460 0.05719 0.06737 0.10033 0.796 0.254 1233.964 0.01505
0.03253 -0.01463 0.05728 0.06748 0.10144 1.219 0.295 1233.994 0.01507
0.03258 -0.01465 0.05738 0.06759 0.10254 0.752 0.248 1234.024 0.01510
0.03263 -0.01467 0.05747 0.06770 0.10365 1.177 0.284 1234.054 0.01512
0.03269 -0.01470 0.05756 0.06781 0.10475 0.948 0.271 1234.084 0.01515
0.03274 -0.01472 0.05766 0.06792 0.10586 0.600 0.235 1234.114 0.01517
0.03280 -0.01475 0.05775 0.06803 0.10696 0.989 0.274 1234.143 0.01520
0.03285 -0.01477 0.05785 0.06814 0.10807 0.871 0.263 1234.173 0.01522
0.03290 -0.01479 0.05794 0.06826 0.10917 1.181 0.292 1234.203 0.01525
0.03296 -0.01482 0.05804 0.06837 0.11028 1.299 0.302 1234.233 0.01527
0.03301 -0.01484 0.05813 0.06848 0.11138 1.185 0.291 1234.263 0.01529
0.03306 -0.01487 0.05823 0.06859 0.11248 1.067 0.282 1234.293 0.01532
0.03312 -0.01489 0.05832 0.06870 0.11359 0.720 0.248 1234.323 0.01534
0.03317 -0.01492 0.05842 0.06881 0.11469 1.263 0.298 1234.353 0.01537
0.03323 -0.01494 0.05851 0.06892 0.11580 0.800 0.254 1234.383 0.01539
0.03328 -0.01496 0.05860 0.06904 0.11690 1.187 0.292 1234.412 0.01542
0.03333 -0.01499 0.05870 0.06915 0.11801 0.722 0.248 1234.442 0.01544
0.03339 -0.01501 0.05879 0.06926 0.11911 1.147 0.289 1234.472 0.01547
0.03344 -0.01504 0.05889 0.06937 0.12022 1.030 0.278 1234.502 0.01549
0.03349 -0.01506 0.05898 0.06948 0.12132 1.379 0.307 1234.532 0.01552
0.03355 -0.01508 0.05908 0.06959 0.12243 1.341 0.304 1234.562 0.01554
0.03360 -0.01511 0.05917 0.06970 0.12354 1.068 0.282 1234.592 0.01556
0.03365 -0.01513 0.05927 0.06981 0.12464 0.835 0.260 1234.622 0.01559
0.03371 -0.01516 0.05936 0.06993 0.12575 0.989 0.274 1234.651 0.01561
0.03376 -0.01518 0.05945 0.07004 0.12685 0.950 0.271 1234.681 0.01564
0.03382 -0.01521 0.05955 0.07015 0.12796 0.988 0.274 1234.711 0.01566
0.03387 -0.01523 0.05964 0.07026 0.12906 1.067 0.282 1234.741 0.01569
0.03392 -0.01525 0.05974 0.07037 0.13017 0.912 0.267 1234.771 0.01571
0.03398 -0.01528 0.05983 0.07048 0.13127 0.833 0.260 1234.801 0.01574
0.03403 -0.01530 0.05993 0.07059 0.13238 1.181 0.292 1234.831 0.01576
0.03408 -0.01533 0.06002 0.07071 0.13348 0.795 0.251 1234.861 0.01579
0.03414 -0.01535 0.06012 0.07082 0.13459 0.794 0.255 1234.890 0.01581
0.03419 -0.01537 0.06021 0.07093 0.13570 1.220 0.295 1234.920 0.01584
0.03425 -0.01540 0.06031 0.07104 0.13680 0.833 0.260 1234.950 0.01586
0.03430 -0.01542 0.06040 0.07115 0.13791 1.026 0.279 1234.980 0.01588
0.03435 -0.01545 0.06050 0.07126 0.13901 0.987 0.271 1235.010 0.01591
0.03441 -0.01547 0.06059 0.07137 0.14012 0.757 0.252 1235.040 0.01593
0.03446 -0.01549 0.06068 0.07149 0.14122 1.302 0.302 1235.070 0.01596
0.03451 -0.01552 0.06078 0.07160 0.14233 0.836 0.260 1235.100 0.01598
0.03457 -0.01554 0.06087 0.07171 0.14344 1.262 0.299 1235.129 0.01601
0.03462 -0.01557 0.06097 0.07182 0.14454 1.224 0.295 1235.159 0.01603
0.03467 -0.01559 0.06106 0.07193 0.14565 0.951 0.272 1235.189 0.01606
0.03473 -0.01562 0.06116 0.07204 0.14675 0.759 0.250 1235.219 0.01608
0.03478 -0.01564 0.06125 0.07215 0.14786 1.028 0.279 1235.249 0.01611
0.03484 -0.01566 0.06135 0.07227 0.14897 0.640 0.240 1235.279 0.01613
0.03489 -0.01569 0.06144 0.07238 0.15007 0.874 0.264 1235.309 0.01615
0.03494 -0.01571 0.06154 0.07249 0.15118 0.874 0.264 1235.339 0.01618
0.03500 -0.01574 0.06163 0.07260 0.15228 0.717 0.248 1235.369 0.01620
0.03505 -0.01576 0.06172 0.07271 0.15339 0.988 0.275 1235.398 0.01623
0.03510 -0.01578 0.06182 0.07282 0.15450 1.103 0.286 1235.428 0.01625
0.03516 -0.01581 0.06191 0.07293 0.15560 0.794 0.251 1235.458 0.01628
0.03521 -0.01583 0.06201 0.07305 0.15671 0.562 0.226 1235.488 0.01630
0.03527 -0.01586 0.06210 0.07316 0.15782 0.991 0.275 1235.518 0.01633
0.03532 -0.01588 0.06220 0.07327 0.15892 1.106 0.285 1235.548 0.01635
0.03537 -0.01591 0.06229 0.07338 0.16003 1.071 0.282 1235.578 0.01638
0.03543 -0.01593 0.06239 0.07349 0.16114 0.813 0.257 1235.608 0.01640
0.03548 -0.01595 0.06248 0.07360 0.16224 1.030 0.275 1235.637 0.01643
0.03553 -0.01598 0.06258 0.07371 0.16335 0.790 0.253 1235.667 0.01645
0.03559 -0.01600 0.06267 0.07383 0.16446 1.207 0.292 1235.697 0.01647
0.03564 -0.01603 0.06277 0.07394 0.16556 0.960 0.268 1235.727 0.01650
0.03570 -0.01605 0.06286 0.07405 0.16667 1.425 0.307 1235.757 0.01652
0.03575 -0.01607 0.06296 0.07416 0.16778 1.322 0.299 1235.787 0.01655
0.03580 -0.01610 0.06305 0.07427 0.16888 1.103 0.281 1235.817 0.01657
0.03586 -0.01612 0.06314 0.07438 0.16999 0.957 0.268 1235.847 0.01660
0.03591 -0.01615 0.06324 0.07450 0.17110 1.016 0.271 1235.876 0.01662
0.03596 -0.01617 0.06333 0.07461 0.17220 1.260 0.294 1235.906 0.01665
0.03602 -0.01620 0.06343 0.07472 0.17331 1.428 0.309 1235.936 0.01667
0.03607 -0.01622 0.06352 0.07483 0.17442 0.719 0.244 1235.966 0.01670
0.03613 -0.01624 0.06362 0.07494 0.17553 1.162 0.285 1235.996 0.01672
0.03618 -0.01627 0.06371 0.07505 0.17663 1.148 0.286 1236.026 0.01674
0.03623 -0.01629 0.06381 0.07516 0.17774 0.708 0.241 1236.056 0.01677
0.03629 -0.01632 0.06390 0.07528 0.17885 1.074 0.279 1236.086 0.01679
0.03634 -0.01634 0.06400 0.07539 0.17995 0.729 0.248 1236.115 0.01682
0.03639 -0.01636 0.06409 0.07550 0.18106 0.799 0.256 1236.145 0.01684
0.03645 -0.01639 0.06419 0.07561 0.18217 1.383 0.309 1236.175 0.01687
0.03650 -0.01641 0.06428 0.07572 0.18328 1.072 0.281 1236.205 0.01689
0.03656 -0.01644 0.06438 0.07583 0.18438 1.578 0.324 1236.235 0.01692
0.03661 -0.01646 0.06447 0.07595 0.18549 0.879 0.264 1236.265 0.01694
0.03666 -0.01649 0.06456 0.07606 0.18660 1.112 0.286 1236.295 0.01697
0.03672 -0.01651 0.06466 0.07617 0.18771 0.957 0.272 1236.325 0.01699
0.03677 -0.01653 0.06475 0.07628 0.18881 0.839 0.260 1236.355 0.01701
0.03683 -0.01656 0.06485 0.07639 0.18992 0.880 0.264 1236.384 0.01704
0.03688 -0.01658 0.06494 0.07650 0.19103 1.270 0.299 1236.414 0.01706
0.03693 -0.01661 0.06504 0.07661 0.19214 0.882 0.265 1236.444 0.01709
0.03699 -0.01663 0.06513 0.07673 0.19324 1.075 0.283 1236.474 0.01711
0.03704 -0.01666 0.06523 0.07684 0.19435 0.996 0.276 1236.504 0.01714
0.03709 -0.01668 0.06532 0.07695 0.19546 1.421 0.312 1236.534 0.01716
0.03715 -0.01670 0.06542 0.07706 0.19657 1.229 0.296 1236.564 0.01719
0.03720 -0.01673 0.06551 0.07717 0.19768 1.075 0.282 1236.594 0.01721
0.03726 -0.01675 0.06561 0.07728 0.19878 1.271 0.299 1236.623 0.01724
0.03731 -0.01678 0.06570 0.07740 0.19989 0.842 0.259 1236.653 0.01726
0.03736 -0.01680 0.06580 0.07751 0.20100 1.387 0.309 1236.683 0.01729
0.03742 -0.01682 0.06589 0.07762 0.20211 0.841 0.259 1236.713 0.01731
0.03747 -0.01685 0.06599 0.07773 0.20322 0.531 0.226 1236.743 0.01733
0.03752 -0.01687 0.06608 0.07784 0.20432 1.076 0.282 1236.773 0.01736
0.03758 -0.01690 0.06618 0.07795 0.20543 0.884 0.264 1236.803 0.01738
0.03763 -0.01692 0.06627 0.07807 0.20654 0.376 0.207 1236.833 0.01741
0.03769 -0.01695 0.06637 0.07818 0.20765 0.221 0.183 1236.862 0.01743
0.03774 -0.01697 0.06646 0.07829 0.20876 0.337 0.201 1236.892 0.01746
0.03779 -0.01699 0.06655 0.07840 0.20987 0.495 0.221 1236.922 0.01748
0.03785 -0.01702 0.06665 0.07851 0.21097 0.921 0.268 1236.952 0.01751
0.03790 -0.01704 0.06674 0.07862 0.21208 0.765 0.253 1236.982 0.01753
0.03796 -0.01707 0.06684 0.07874 0.21319 0.999 0.275 1237.012 0.01756
0.03801 -0.01709 0.06693 0.07885 0.21430 0.610 0.236 1237.042 0.01758
0.03806 -0.01711 0.06703 0.07896 0.21541 0.646 0.239 1237.072 0.01760
0.03812 -0.01714 0.06712 0.07907 0.21652 0.919 0.268 1237.101 0.01763
0.03817 -0.01716 0.06722 0.07918 0.21762 0.492 0.222 1237.131 0.01765
0.03822 -0.01719 0.06731 0.07929 0.21873 0.687 0.243 1237.161 0.01768
0.03828 -0.01721 0.06741 0.07941 0.21984 0.528 0.226 1237.191 0.01770
0.03833 -0.01724 0.06750 0.07952 0.22095 0.294 0.195 1237.221 0.01773
0.03839 -0.01726 0.06760 0.07963 0.22206 0.449 0.216 1237.251 0.01775
0.03844 -0.01728 0.06769 0.07974 0.22317 0.176 0.176 1237.281 0.01778
0.03849 -0.01731 0.06779 0.07985 0.22428 0.096 0.153 1237.311 0.01780
0.03855 -0.01733 0.06788 0.07996 0.22539 0.253 0.181 1237.341 0.01783
0.03860 -0.01736 0.06798 0.08008 0.22650 0.095 0.143 1237.370 0.01785
0.03866 -0.01738 0.06807 0.08019 0.22760 0.290 0.189 1237.400 0.01788
0.03871 -0.01741 0.06817 0.08030 0.22871 0.055 0.134 1237.430 0.01790
0.03876 -0.01743 0.06826 0.08041 0.22982 0.368 0.200 1237.460 0.01792
0.03882 -0.01745 0.06836 0.08052 0.23093 0.563 0.226 1237.490 0.01795
0.03887 -0.01748 0.06845 0.08064 0.23204 0.682 0.244 1237.520 0.01797
0.03892 -0.01750 0.06855 0.08075 0.23315 0.606 0.236 1237.550 0.01800
0.03898 -0.01753 0.06864 0.08086 0.23426 0.918 0.268 1237.580 0.01802
0.03903 -0.01755 0.06874 0.08097 0.23537 1.189 0.292 1237.609 0.01805
0.03909 -0.01758 0.06883 0.08108 0.23648 0.836 0.261 1237.639 0.01807
0.03914 -0.01760 0.06893 0.08119 0.23759 0.799 0.257 1237.669 0.01810
0.03919 -0.01762 0.06902 0.08131 0.23870 0.877 0.264 1237.699 0.01812
0.03925 -0.01765 0.06912 0.08142 0.23981 1.227 0.296 1237.729 0.01815
0.03930 -0.01767 0.06921 0.08153 0.24092 0.952 0.271 1237.759 0.01817
0.03936 -0.01770 0.06931 0.08164 0.24202 0.874 0.264 1237.789 0.01819
0.03941 -0.01772 0.06940 0.08175 0.24313 1.144 0.289 1237.819 0.01822
0.03946 -0.01774 0.06950 0.08186 0.24424 0.640 0.240 1237.848 0.01824
0.03952 -0.01777 0.06959 0.08198 0.24535 1.223 0.296 1237.878 0.01827
0.03957 -0.01779 0.06968 0.08209 0.24646 1.261 0.299 1237.908 0.01829
0.03962 -0.01782 0.06978 0.08220 0.24757 1.182 0.293 1237.938 0.01832
0.03968 -0.01784 0.06987 0.08231 0.24868 0.560 0.217 1237.968 0.01834
0.03973 -0.01787 0.06997 0.08242 0.24979 1.184 0.292 1237.998 0.01837
0.03979 -0.01789 0.07006 0.08254 0.25090 1.378 0.309 1238.028 0.01839
0.03984 -0.01791 0.07016 0.08265 0.25201 0.987 0.272 1238.058 0.01842
0.03989 -0.01794 0.07025 0.08276 0.25312 0.909 0.262 1238.087 0.01844
0.03995 -0.01796 0.07035 0.08287 0.25423 1.103 0.282 1238.117 0.01847
0.04000 -0.01799 0.07044 0.08298 0.25534 1.257 0.296 1238.147 0.01849
0.04006 -0.01801 0.07054 0.08309 0.25645 0.871 0.260 1238.177 0.01851
0.04011 -0.01804 0.07063 0.08321 0.25756 0.794 0.251 1238.207 0.01854
0.04016 -0.01806 0.07073 0.08332 0.25867 0.753 0.244 1238.237 0.01856
0.04022 -0.01808 0.07082 0.08343 0.25978 0.444 0.203 1238.267 0.01859
0.04027 -0.01811 0.07092 0.08354 0.26089 0.599 0.229 1238.297 0.01861
0.04033 -0.01813 0.07101 0.08365 0.26200 0.444 0.210 1238.327 0.01864
0.04038 -0.01816 0.07111 0.08377 0.26311 0.329 0.189 1238.356 0.01866
0.04043 -0.01818 0.07120 0.08388 0.26422 0.058 0.134 1238.386 0.01869
0.04049 -0.01821 0.07130 0.08399 0.26533 0.060 0.153 1238.416 0.01871
0.04054 -0.01823 0.07139 0.08410 0.26644 0.216 0.183 1238.446 0.01874
0.04060 -0.01825 0.07149 0.08421 0.26755 0.372 0.205 1238.476 0.01876
0.04065 -0.01828 0.07158 0.08432 0.26866 0.100 0.162 1238.506 0.01878
0.04070 -0.01830 0.07168 0.08444 0.26978 0.062 0.153 1238.536 0.01881
0.04076 -0.01833 0.07177 0.08455 0.27089 0.061 0.153 1238.566 0.01883
0.04081 -0.01835 0.07187 0.08466 0.27200 0.100 0.158 1238.595 0.01886
0.04087 -0.01837 0.07196 0.08477 0.27311 0.335 0.201 1238.625 0.01888
0.04092 -0.01840 0.07206 0.08488 0.27422 0.450 0.216 1238.655 0.01891
0.04097 -0.01842 0.07215 0.08500 0.27533 0.708 0.243 1238.685 0.01893
0.04103 -0.01845 0.07225 0.08511 0.27644 0.612 0.235 1238.715 0.01896
0.04108 -0.01847 0.07234 0.08522 0.27755 0.667 0.239 1238.745 0.01898
0.04113 -0.01850 0.07244 0.08533 0.27866 0.473 0.211 1238.775 0.01901
0.04119 -0.01852 0.07253 0.08544 0.27977 0.648 0.235 1238.805 0.01903
0.04124 -0.01854 0.07263 0.08556 0.28088 0.976 0.271 1238.834 0.01905
0.04130 -0.01857 0.07272 0.08567 0.28199 0.991 0.270 1238.864 0.01908
0.04135 -0.01859 0.07282 0.08578 0.28310 0.943 0.267 1238.894 0.01910
0.04140 -0.01862 0.07291 0.08589 0.28422 0.676 0.240 1238.924 0.01913
0.04146 -0.01864 0.07301 0.08600 0.28533 1.006 0.271 1238.954 0.01915
0.04151 -0.01867 0.07310 0.08612 0.28644 0.927 0.260 1238.984 0.01918
0.04157 -0.01869 0.07320 0.08623 0.28755 0.933 0.264 1239.014 0.01920
0.04162 -0.01871 0.07329 0.08634 0.28866 0.963 0.267 1239.044 0.01923
0.04167 -0.01874 0.07339 0.08645 0.28977 1.046 0.275 1239.073 0.01925
0.04173 -0.01876 0.07348 0.08656 0.29088 0.827 0.256 1239.103 0.01928
0.04178 -0.01879 0.07358 0.08668 0.29199 0.885 0.263 1239.133 0.01930
0.04184 -0.01881 0.07367 0.08679 0.29310 0.808 0.256 1239.163 0.01933
0.04189 -0.01884 0.07377 0.08690 0.29422 0.767 0.251 1239.193 0.01935
0.04194 -0.01886 0.07386 0.08701 0.29533 1.274 0.298 1239.223 0.01937
0.04200 -0.01888 0.07396 0.08712 0.29644 1.002 0.275 1239.253 0.01940
0.04205 -0.01891 0.07405 0.08724 0.29755 1.079 0.281 1239.283 0.01942
0.04211 -0.01893 0.07415 0.08735 0.29866 0.769 0.251 1239.313 0.01945
0.04216 -0.01896 0.07424 0.08746 0.29977 1.116 0.285 1239.342 0.01947
0.04221 -0.01898 0.07434 0.08757 0.30089 1.116 0.285 1239.372 0.01950
0.04227 -0.01901 0.07443 0.08768 0.30200 0.609 0.235 1239.402 0.01952
0.04232 -0.01903 0.07453 0.08780 0.30311 1.347 0.304 1239.432 0.01955
0.04238 -0.01905 0.07462 0.08791 0.30422 0.800 0.256 1239.462 0.01957
0.04243 -0.01908 0.07472 0.08802 0.30533 1.071 0.281 1239.492 0.01960
0.04248 -0.01910 0.07481 0.08813 0.30644 0.836 0.260 1239.522 0.01962
0.04254 -0.01913 0.07491 0.08824 0.30756 0.953 0.271 1239.552 0.01964
0.04259 -0.01915 0.07501 0.08836 0.30867 1.185 0.292 1239.581 0.01967
0.04265 -0.01918 0.07510 0.08847 0.30978 1.419 0.310 1239.611 0.01969
0.04270 -0.01920 0.07520 0.08858 0.31089 1.379 0.307 1239.641 0.01972
0.04275 -0.01922 0.07529 0.08869 0.31200 1.028 0.278 1239.671 0.01974
0.04281 -0.01925 0.07539 0.08880 0.31312 0.760 0.251 1239.701 0.01977
