x y z dist_scaled dist_frac flux_norm sig_norm wavelength redshift
0.01053 -0.01733 0.05354 0.05726 0.00000 0.821 0.253 1231.245 0.01281
0.01055 -0.01737 0.05365 0.05737 0.00110 1.591 0.321 1231.275 0.01284
0.01057 -0.01740 0.05375 0.05748 0.00220 0.690 0.236 1231.305 0.01286
0.01059 -0.01743 0.05386 0.05759 0.00330 1.328 0.302 1231.335 0.01289
0.01061 -0.01747 0.05396 0.05770 0.00440 1.028 0.271 1231.365 0.01291
0.01063 -0.01750 0.05406 0.05781 0.00550 0.984 0.267 1231.395 0.01293
0.01065 -0.01753 0.05417 0.05792 0.00661 0.984 0.267 1231.425 0.01296
0.01067 -0.01757 0.05427 0.05803 0.00771 0.896 0.259 1231.454 0.01298
0.01069 -0.01760 0.05437 0.05814 0.00881 1.024 0.273 1231.484 0.01301
0.01072 -0.01763 0.05448 0.05826 0.00991 0.639 0.229 1231.514 0.01303
0.01074 -0.01767 0.05458 0.05837 0.01101 0.636 0.229 1231.544 0.01306
0.01076 -0.01770 0.05469 0.05848 0.01211 1.060 0.276 1231.574 0.01308
0.01078 -0.01774 0.05479 0.05859 0.01321 0.549 0.218 1231.604 0.01311
0.01080 -0.01777 0.05489 0.05870 0.01431 0.802 0.249 1231.634 0.01313
0.01082 -0.01780 0.05500 0.05881 0.01541 0.759 0.245 1231.664 0.01316
0.01084 -0.01784 0.05510 0.05892 0.01652 1.055 0.275 1231.693 0.01318
0.01086 -0.01787 0.05520 0.05903 0.01762 0.801 0.245 1231.723 0.01321
0.01088 -0.01790 0.05531 0.05914 0.01872 1.179 0.284 1231.753 0.01323
0.01090 -0.01794 0.05541 0.05925 0.01982 0.842 0.251 1231.783 0.01325
0.01092 -0.01797 0.05552 0.05936 0.02092 1.137 0.280 1231.813 0.01328
0.01094 -0.01800 0.05562 0.05948 0.02202 0.924 0.259 1231.843 0.01330
0.01096 -0.01804 0.05572 0.05959 0.02312 1.092 0.275 1231.873 0.01333
0.01098 -0.01807 0.05583 0.05970 0.02423 0.973 0.265 1231.903 0.01335
0.01100 -0.01810 0.05593 0.05981 0.02533 0.771 0.242 1231.932 0.01338
0.01102 -0.01814 0.05603 0.05992 0.02643 0.788 0.245 1231.962 0.01340
0.01104 -0.01817 0.05614 0.06003 0.02753 0.870 0.254 1231.992 0.01343
0.01106 -0.01821 0.05624 0.06014 0.02863 0.956 0.291 1232.022 0.01345
0.01108 -0.01824 0.05635 0.06025 0.02973 1.067 0.320 1232.052 0.01348
0.01110 -0.01827 0.05645 0.06036 0.03084 1.163 0.335 1232.082 0.01350
0.01112 -0.01831 0.05655 0.06047 0.03194 1.170 0.340 1232.112 0.01352
0.01114 -0.01834 0.05666 0.06059 0.03304 0.831 0.292 1232.142 0.01355
0.01116 -0.01837 0.05676 0.06070 0.03414 0.968 0.307 1232.171 0.01357
0.01118 -0.01841 0.05687 0.06081 0.03524 1.052 0.294 1232.201 0.01360
0.01120 -0.01844 0.05697 0.06092 0.03635 1.024 0.266 1232.231 0.01362
0.01123 -0.01847 0.05707 0.06103 0.03745 0.906 0.255 1232.261 0.01365
0.01125 -0.01851 0.05718 0.06114 0.03855 0.962 0.258 1232.291 0.01367
0.01127 -0.01854 0.05728 0.06125 0.03965 1.011 0.265 1232.321 0.01370
0.01129 -0.01858 0.05738 0.06136 0.04075 1.072 0.268 1232.351 0.01372
0.01131 -0.01861 0.05749 0.06147 0.04186 1.229 0.284 1232.381 0.01375
0.01133 -0.01864 0.05759 0.06159 0.04296 0.942 0.261 1232.411 0.01377
0.01135 -0.01868 0.05770 0.06170 0.04406 0.831 0.245 1232.440 0.01380
0.01137 -0.01871 0.05780 0.06181 0.04516 0.750 0.238 1232.470 0.01382
0.01139 -0.01874 0.05790 0.06192 0.04627 0.993 0.263 1232.500 0.01384
0.01141 -0.01878 0.05801 0.06203 0.04737 0.874 0.253 1232.530 0.01387
0.01143 -0.01881 0.05811 0.06214 0.04847 1.199 0.283 1232.560 0.01389
0.01145 -0.01884 0.05822 0.06225 0.04957 0.544 0.215 1232.590 0.01392
0.01147 -0.01888 0.05832 0.06236 0.05068 0.749 0.237 1232.620 0.01394
0.01149 -0.01891 0.05842 0.06247 0.05178 1.154 0.279 1232.650 0.01397
0.01151 -0.01895 0.05853 0.06258 0.05288 1.114 0.271 1232.679 0.01399
0.01153 -0.01898 0.05863 0.06270 0.05398 0.908 0.254 1232.709 0.01402
0.01155 -0.01901 0.05873 0.06281 0.05509 0.906 0.254 1232.739 0.01404
0.01157 -0.01905 0.05884 0.06292 0.05619 1.190 0.277 1232.769 0.01407
0.01159 -0.01908 0.05894 0.06303 0.05729 0.988 0.257 1232.799 0.01409
0.01161 -0.01911 0.05905 0.06314 0.05840 0.741 0.231 1232.829 0.01411
0.01163 -0.01915 0.05915 0.06325 0.05950 1.104 0.270 1232.859 0.01414
0.01165 -0.01918 0.05925 0.06336 0.06060 1.186 0.276 1232.889 0.01416
0.01167 -0.01921 0.05936 0.06347 0.06170 0.902 0.250 1232.918 0.01419
0.01170 -0.01925 0.05946 0.06358 0.06281 0.979 0.260 1232.948 0.01421
0.01172 -0.01928 0.05957 0.06370 0.06391 1.058 0.270 1232.978 0.01424
0.01174 -0.01932 0.05967 0.06381 0.06501 1.140 0.272 1233.008 0.01426
0.01176 -0.01935 0.05977 0.06392 0.06612 1.100 0.269 1233.038 0.01429
0.01178 -0.01938 0.05988 0.06403 0.06722 1.257 0.284 1233.068 0.01431
0.01180 -0.01942 0.05998 0.06414 0.06832 1.138 0.271 1233.098 0.01434
0.01182 -0.01945 0.06009 0.06425 0.06943 1.098 0.272 1233.128 0.01436
0.01184 -0.01948 0.06019 0.06436 0.07053 0.976 0.258 1233.157 0.01439
0.01186 -0.01952 0.06029 0.06447 0.07163 0.692 0.228 1233.187 0.01441
0.01188 -0.01955 0.06040 0.06459 0.07274 0.973 0.257 1233.217 0.01443
0.01190 -0.01958 0.06050 0.06470 0.07384 0.772 0.235 1233.247 0.01446
0.01192 -0.01962 0.06061 0.06481 0.07494 1.169 0.273 1233.277 0.01448
0.01194 -0.01965 0.06071 0.06492 0.07605 1.209 0.276 1233.307 0.01451
0.01196 -0.01969 0.06081 0.06503 0.07715 0.647 0.220 1233.337 0.01453
0.01198 -0.01972 0.06092 0.06514 0.07825 0.604 0.215 1233.367 0.01456
0.01200 -0.01975 0.06102 0.06525 0.07936 0.644 0.219 1233.397 0.01458
0.01202 -0.01979 0.06113 0.06536 0.08046 1.084 0.262 1233.426 0.01461
0.01204 -0.01982 0.06123 0.06547 0.08156 1.043 0.262 1233.456 0.01463
0.01206 -0.01985 0.06133 0.06559 0.08267 1.200 0.274 1233.486 0.01466
0.01208 -0.01989 0.06144 0.06570 0.08377 1.079 0.265 1233.516 0.01468
0.01210 -0.01992 0.06154 0.06581 0.08488 0.839 0.242 1233.546 0.01470
0.01212 -0.01995 0.06165 0.06592 0.08598 0.600 0.217 1233.576 0.01473
0.01215 -0.01999 0.06175 0.06603 0.08708 1.037 0.261 1233.606 0.01475
0.01217 -0.02002 0.06185 0.06614 0.08819 0.994 0.262 1233.636 0.01478
0.01219 -0.02006 0.06196 0.06625 0.08929 1.271 0.283 1233.665 0.01480
0.01221 -0.02009 0.06206 0.06636 0.09040 1.309 0.285 1233.695 0.01483
0.01223 -0.02012 0.06217 0.06648 0.09150 0.755 0.231 1233.725 0.01485
0.01225 -0.02016 0.06227 0.06659 0.09260 1.269 0.282 1233.755 0.01488
0.01227 -0.02019 0.06237 0.06670 0.09371 1.227 0.275 1233.785 0.01490
0.01229 -0.02022 0.06248 0.06681 0.09481 0.832 0.240 1233.815 0.01493
0.01231 -0.02026 0.06258 0.06692 0.09592 0.752 0.229 1233.845 0.01495
0.01233 -0.02029 0.06269 0.06703 0.09702 0.634 0.220 1233.875 0.01497
0.01235 -0.02033 0.06279 0.06714 0.09813 0.910 0.248 1233.904 0.01500
0.01237 -0.02036 0.06289 0.06725 0.09923 0.909 0.246 1233.934 0.01502
0.01239 -0.02039 0.06300 0.06737 0.10033 0.828 0.239 1233.964 0.01505
0.01241 -0.02043 0.06310 0.06748 0.10144 0.749 0.231 1233.994 0.01507
0.01243 -0.02046 0.06321 0.06759 0.10254 0.864 0.242 1234.024 0.01510
0.01245 -0.02049 0.06331 0.06770 0.10365 1.215 0.274 1234.054 0.01512
0.01247 -0.02053 0.06341 0.06781 0.10475 0.981 0.251 1234.084 0.01515
0.01249 -0.02056 0.06352 0.06792 0.10586 1.137 0.263 1234.114 0.01517
0.01251 -0.02059 0.06362 0.06803 0.10696 0.944 0.255 1234.143 0.01520
0.01253 -0.02063 0.06373 0.06814 0.10807 0.900 0.248 1234.173 0.01522
0.01255 -0.02066 0.06383 0.06826 0.10917 0.980 0.251 1234.203 0.01525
0.01257 -0.02070 0.06393 0.06837 0.11028 1.211 0.276 1234.233 0.01527
0.01260 -0.02073 0.06404 0.06848 0.11138 0.710 0.226 1234.263 0.01529
0.01262 -0.02076 0.06414 0.06859 0.11248 0.670 0.222 1234.293 0.01532
0.01264 -0.02080 0.06425 0.06870 0.11359 0.865 0.240 1234.323 0.01534
0.01266 -0.02083 0.06435 0.06881 0.11469 1.134 0.266 1234.353 0.01537
0.01268 -0.02086 0.06446 0.06892 0.11580 1.017 0.256 1234.383 0.01539
0.01270 -0.02090 0.06456 0.06904 0.11690 1.209 0.275 1234.412 0.01542
0.01272 -0.02093 0.06466 0.06915 0.11801 1.052 0.259 1234.442 0.01544
0.01274 -0.02097 0.06477 0.06926 0.11911 1.128 0.265 1234.472 0.01547
0.01276 -0.02100 0.06487 0.06937 0.12022 0.701 0.224 1234.502 0.01549
0.01278 -0.02103 0.06498 0.06948 0.12132 0.861 0.239 1234.532 0.01552
0.01280 -0.02107 0.06508 0.06959 0.12243 0.963 0.253 1234.562 0.01554
0.01282 -0.02110 0.06518 0.06970 0.12354 1.063 0.261 1234.592 0.01556
0.01284 -0.02113 0.06529 0.06981 0.12464 1.236 0.273 1234.622 0.01559
0.01286 -0.02117 0.06539 0.06993 0.12575 1.117 0.267 1234.651 0.01561
0.01288 -0.02120 0.06550 0.07004 0.12685 0.957 0.248 1234.681 0.01564
0.01290 -0.02123 0.06560 0.07015 0.12796 1.032 0.257 1234.711 0.01566
0.01292 -0.02127 0.06570 0.07026 0.12906 0.793 0.234 1234.741 0.01569
0.01294 -0.02130 0.06581 0.07037 0.13017 1.203 0.272 1234.771 0.01571
0.01296 -0.02134 0.06591 0.07048 0.13127 1.151 0.266 1234.801 0.01574
0.01298 -0.02137 0.06602 0.07059 0.13238 1.112 0.263 1234.831 0.01576
0.01301 -0.02140 0.06612 0.07071 0.13348 0.978 0.250 1234.861 0.01579
0.01303 -0.02144 0.06623 0.07082 0.13459 1.125 0.263 1234.890 0.01581
0.01305 -0.02147 0.06633 0.07093 0.13570 0.883 0.244 1234.920 0.01584
0.01307 -0.02150 0.06643 0.07104 0.13680 1.412 0.287 1234.950 0.01586
0.01309 -0.02154 0.06654 0.07115 0.13791 0.589 0.210 1234.980 0.01588
0.01311 -0.02157 0.06664 0.07126 0.13901 0.804 0.234 1235.010 0.01591
0.01313 -0.02161 0.06675 0.07137 0.14012 1.279 0.277 1235.040 0.01593
0.01315 -0.02164 0.06685 0.07149 0.14122 0.956 0.250 1235.070 0.01596
0.01317 -0.02167 0.06695 0.07160 0.14233 0.692 0.222 1235.100 0.01598
0.01319 -0.02171 0.06706 0.07171 0.14344 0.996 0.256 1235.129 0.01601
0.01321 -0.02174 0.06716 0.07182 0.14454 0.878 0.240 1235.159 0.01603
0.01323 -0.02177 0.06727 0.07193 0.14565 0.917 0.246 1235.189 0.01606
0.01325 -0.02181 0.06737 0.07204 0.14675 0.801 0.229 1235.219 0.01608
0.01327 -0.02184 0.06748 0.07215 0.14786 0.842 0.234 1235.249 0.01611
0.01329 -0.02188 0.06758 0.07227 0.14897 1.105 0.264 1235.279 0.01613
0.01331 -0.02191 0.06768 0.07238 0.15007 0.913 0.245 1235.309 0.01615
0.01333 -0.02194 0.06779 0.07249 0.15118 1.106 0.260 1235.339 0.01618
0.01335 -0.02198 0.06789 0.07260 0.15228 1.215 0.268 1235.369 0.01620
0.01337 -0.02201 0.06800 0.07271 0.15339 1.101 0.257 1235.398 0.01623
0.01339 -0.02204 0.06810 0.07282 0.15450 0.723 0.221 1235.428 0.01625
0.01341 -0.02208 0.06821 0.07293 0.15560 1.102 0.260 1235.458 0.01628
0.01344 -0.02211 0.06831 0.07305 0.15671 1.216 0.272 1235.488 0.01630
0.01346 -0.02215 0.06841 0.07316 0.15782 0.873 0.238 1235.518 0.01633
0.01348 -0.02218 0.06852 0.07327 0.15892 0.687 0.220 1235.548 0.01635
0.01350 -0.02221 0.06862 0.07338 0.16003 0.834 0.232 1235.578 0.01638
0.01352 -0.02225 0.06873 0.07349 0.16114 1.062 0.256 1235.608 0.01640
0.01354 -0.02228 0.06883 0.07360 0.16224 0.683 0.216 1235.637 0.01643
0.01356 -0.02231 0.06894 0.07371 0.16335 1.213 0.271 1235.667 0.01645
0.01358 -0.02235 0.06904 0.07383 0.16446 0.875 0.237 1235.697 0.01647
0.01360 -0.02238 0.06914 0.07394 0.16556 0.873 0.237 1235.727 0.01650
0.01362 -0.02242 0.06925 0.07405 0.16667 0.986 0.249 1235.757 0.01652
0.01364 -0.02245 0.06935 0.07416 0.16778 1.287 0.272 1235.787 0.01655
0.01366 -0.02248 0.06946 0.07427 0.16888 1.062 0.255 1235.817 0.01657
0.01368 -0.02252 0.06956 0.07438 0.16999 1.209 0.266 1235.847 0.01660
0.01370 -0.02255 0.06967 0.07450 0.17110 1.213 0.265 1235.876 0.01662
0.01372 -0.02258 0.06977 0.07461 0.17220 1.024 0.252 1235.906 0.01665
0.01374 -0.02262 0.06987 0.07472 0.17331 0.764 0.226 1235.936 0.01667
0.01376 -0.02265 0.06998 0.07483 0.17442 0.351 0.177 1235.966 0.01670
0.01378 -0.02269 0.07008 0.07494 0.17553 0.835 0.236 1235.996 0.01672
0.01380 -0.02272 0.07019 0.07505 0.17663 0.574 0.203 1236.026 0.01674
0.01383 -0.02275 0.07029 0.07516 0.17774 0.907 0.242 1236.056 0.01677
0.01385 -0.02279 0.07040 0.07528 0.17885 0.943 0.243 1236.086 0.01679
0.01387 -0.02282 0.07050 0.07539 0.17995 0.755 0.225 1236.115 0.01682
0.01389 -0.02285 0.07060 0.07550 0.18106 0.937 0.245 1236.145 0.01684
0.01391 -0.02289 0.07071 0.07561 0.18217 1.315 0.276 1236.175 0.01687
0.01393 -0.02292 0.07081 0.07572 0.18328 0.863 0.238 1236.205 0.01689
0.01395 -0.02296 0.07092 0.07583 0.18438 1.087 0.260 1236.235 0.01692
0.01397 -0.02299 0.07102 0.07595 0.18549 0.937 0.241 1236.265 0.01694
0.01399 -0.02302 0.07113 0.07606 0.18660 1.193 0.268 1236.295 0.01697
0.01401 -0.02306 0.07123 0.07617 0.18771 1.080 0.252 1236.325 0.01699
0.01403 -0.02309 0.07133 0.07628 0.18881 0.671 0.217 1236.355 0.01701
0.01405 -0.02312 0.07144 0.07639 0.18992 0.859 0.235 1236.384 0.01704
0.01407 -0.02316 0.07154 0.07650 0.19103 0.785 0.230 1236.414 0.01706
0.01409 -0.02319 0.07165 0.07661 0.19214 0.523 0.198 1236.444 0.01709
0.01411 -0.02323 0.07175 0.07673 0.19324 1.039 0.250 1236.474 0.01711
0.01413 -0.02326 0.07186 0.07684 0.19435 0.965 0.243 1236.504 0.01714
0.01415 -0.02329 0.07196 0.07695 0.19546 1.035 0.252 1236.534 0.01716
0.01417 -0.02333 0.07206 0.07706 0.19657 1.037 0.252 1236.564 0.01719
0.01419 -0.02336 0.07217 0.07717 0.19768 0.996 0.249 1236.594 0.01721
0.01422 -0.02340 0.07227 0.07728 0.19878 1.226 0.266 1236.623 0.01724
0.01424 -0.02343 0.07238 0.07740 0.19989 1.178 0.267 1236.653 0.01726
0.01426 -0.02346 0.07248 0.07751 0.20100 1.106 0.258 1236.683 0.01729
0.01428 -0.02350 0.07259 0.07762 0.20211 0.924 0.240 1236.713 0.01731
0.01430 -0.02353 0.07269 0.07773 0.20322 1.105 0.258 1236.743 0.01733
0.01432 -0.02356 0.07280 0.07784 0.20432 0.991 0.248 1236.773 0.01736
0.01434 -0.02360 0.07290 0.07795 0.20543 0.777 0.226 1236.803 0.01738
0.01436 -0.02363 0.07300 0.07807 0.20654 0.737 0.220 1236.833 0.01741
0.01438 -0.02367 0.07311 0.07818 0.20765 0.844 0.236 1236.862 0.01743
0.01440 -0.02370 0.07321 0.07829 0.20876 0.955 0.242 1236.892 0.01746
0.01442 -0.02373 0.07332 0.07840 0.20987 0.845 0.232 1236.922 0.01748
0.01444 -0.02377 0.07342 0.07851 0.21097 0.883 0.236 1236.952 0.01751
0.01446 -0.02380 0.07353 0.07862 0.21208 1.101 0.260 1236.982 0.01753
0.01448 -0.02383 0.07363 0.07874 0.21319 1.102 0.260 1237.012 0.01756
0.01450 -0.02387 0.07374 0.07885 0.21430 0.843 0.231 1237.042 0.01758
0.01452 -0.02390 0.07384 0.07896 0.21541 1.068 0.254 1237.072 0.01760
0.01454 -0.02394 0.07394 0.07907 0.21652 0.958 0.244 1237.101 0.01763
0.01456 -0.02397 0.07405 0.07918 0.21762 1.044 0.249 1237.131 0.01765
0.01458 -0.02400 0.07415 0.07929 0.21873 1.118 0.256 1237.161 0.01768
0.01461 -0.02404 0.07426 0.07941 0.21984 1.348 0.275 1237.191 0.01770
0.01463 -0.02407 0.07436 0.07952 0.22095 0.801 0.229 1237.221 0.01773
0.01465 -0.02410 0.07447 0.07963 0.22206 0.917 0.238 1237.251 0.01775
0.01467 -0.02414 0.07457 0.07974 0.22317 0.983 0.244 1237.281 0.01778
0.01469 -0.02417 0.07468 0.07985 0.22428 0.871 0.235 1237.311 0.01780
0.01471 -0.02421 0.07478 0.07996 0.22539 1.235 0.267 1237.341 0.01783
0.01473 -0.02424 0.07488 0.08008 0.22650 0.972 0.247 1237.370 0.01785
0.01475 -0.02427 0.07499 0.08019 0.22760 1.090 0.258 1237.400 0.01788
0.01477 -0.02431 0.07509 0.08030 0.22871 1.456 0.284 1237.430 0.01790
0.01479 -0.02434 0.07520 0.08041 0.22982 0.772 0.225 1237.460 0.01792
0.01481 -0.02438 0.07530 0.08052 0.23093 0.690 0.217 1237.490 0.01795
0.01483 -0.02441 0.07541 0.08064 0.23204 0.690 0.214 1237.520 0.01797
0.01485 -0.02444 0.07551 0.08075 0.23315 1.596 0.291 1237.550 0.01800
0.01487 -0.02448 0.07562 0.08086 0.23426 1.259 0.265 1237.580 0.01802
0.01489 -0.02451 0.07572 0.08097 0.23537 1.034 0.249 1237.609 0.01805
0.01491 -0.02454 0.07583 0.08108 0.23648 0.811 0.228 1237.639 0.01807
0.01493 -0.02458 0.07593 0.08119 0.23759 0.918 0.240 1237.669 0.01810
0.01495 -0.02461 0.07603 0.08131 0.23870 1.320 0.274 1237.699 0.01812
0.01498 -0.02465 0.07614 0.08142 0.23981 0.844 0.231 1237.729 0.01815
0.01500 -0.02468 0.07624 0.08153 0.24092 0.767 0.221 1237.759 0.01817
0.01502 -0.02471 0.07635 0.08164 0.24202 1.166 0.260 1237.789 0.01819
0.01504 -0.02475 0.07645 0.08175 0.24313 1.236 0.268 1237.819 0.01822
0.01506 -0.02478 0.07656 0.08186 0.24424 0.803 0.226 1237.848 0.01824
0.01508 -0.02482 0.07666 0.08198 0.24535 1.128 0.257 1237.878 0.01827
0.01510 -0.02485 0.07677 0.08209 0.24646 0.983 0.241 1237.908 0.01829
0.01512 -0.02488 0.07687 0.08220 0.24757 1.032 0.249 1237.938 0.01832
0.01514 -0.02492 0.07698 0.08231 0.24868 0.937 0.239 1237.968 0.01834
0.01516 -0.02495 0.07708 0.08242 0.24979 1.108 0.257 1237.998 0.01837
0.01518 -0.02498 0.07718 0.08254 0.25090 0.911 0.239 1238.028 0.01839
0.01520 -0.02502 0.07729 0.08265 0.25201 0.851 0.233 1238.058 0.01842
0.01522 -0.02505 0.07739 0.08276 0.25312 0.706 0.219 1238.087 0.01844
0.01524 -0.02509 0.07750 0.08287 0.25423 0.884 0.235 1238.117 0.01847
0.01526 -0.02512 0.07760 0.08298 0.25534 0.489 0.194 1238.147 0.01849
0.01528 -0.02515 0.07771 0.08309 0.25645 0.999 0.245 1238.177 0.01851
0.01530 -0.02519 0.07781 0.08321 0.25756 0.967 0.245 1238.207 0.01854
0.01532 -0.02522 0.07792 0.08332 0.25867 1.241 0.264 1238.237 0.01856
0.01535 -0.02526 0.07802 0.08343 0.25978 0.923 0.239 1238.267 0.01859
0.01537 -0.02529 0.07813 0.08354 0.26089 0.955 0.242 1238.297 0.01861
0.01539 -0.02532 0.07823 0.08365 0.26200 0.650 0.213 1238.327 0.01864
0.01541 -0.02536 0.07833 0.08377 0.26311 0.857 0.232 1238.356 0.01866
0.01543 -0.02539 0.07844 0.08388 0.26422 0.704 0.219 1238.386 0.01869
0.01545 -0.02542 0.07854 0.08399 0.26533 0.763 0.223 1238.416 0.01871
0.01547 -0.02546 0.07865 0.08410 0.26644 1.193 0.264 1238.446 0.01874
0.01549 -0.02549 0.07875 0.08421 0.26755 0.868 0.232 1238.476 0.01876
0.01551 -0.02553 0.07886 0.08432 0.26866 1.084 0.250 1238.506 0.01878
0.01553 -0.02556 0.07896 0.08444 0.26978 1.013 0.244 1238.536 0.01881
0.01555 -0.02559 0.07907 0.08455 0.27089 1.049 0.250 1238.566 0.01883
0.01557 -0.02563 0.07917 0.08466 0.27200 0.690 0.212 1238.595 0.01886
0.01559 -0.02566 0.07928 0.08477 0.27311 0.903 0.235 1238.625 0.01888
0.01561 -0.02570 0.07938 0.08488 0.27422 0.907 0.234 1238.655 0.01891
0.01563 -0.02573 0.07949 0.08500 0.27533 1.160 0.257 1238.685 0.01893
0.01565 -0.02576 0.07959 0.08511 0.27644 0.684 0.212 1238.715 0.01896
0.01567 -0.02580 0.07969 0.08522 0.27755 1.048 0.250 1238.745 0.01898
0.01570 -0.02583 0.07980 0.08533 0.27866 0.901 0.237 1238.775 0.01901
0.01572 -0.02587 0.07990 0.08544 0.27977 0.944 0.238 1238.805 0.01903
0.01574 -0.02590 0.08001 0.08556 0.28088 0.873 0.232 1238.834 0.01905
0.01576 -0.02593 0.08011 0.08567 0.28199 0.831 0.228 1238.864 0.01908
0.01578 -0.02597 0.08022 0.08578 0.28310 0.973 0.243 1238.894 0.01910
0.01580 -0.02600 0.08032 0.08589 0.28422 0.687 0.212 1238.924 0.01913
0.01582 -0.02603 0.08043 0.08600 0.28533 0.794 0.225 1238.954 0.01915
0.01584 -0.02607 0.08053 0.08612 0.28644 0.941 0.240 1238.984 0.01918
0.01586 -0.02610 0.08064 0.08623 0.28755 1.077 0.252 1239.014 0.01920
0.01588 -0.02614 0.08074 0.08634 0.28866 1.047 0.249 1239.044 0.01923
0.01590 -0.02617 0.08085 0.08645 0.28977 0.974 0.240 1239.073 0.01925
0.01592 -0.02620 0.08095 0.08656 0.29088 0.617 0.204 1239.103 0.01928
0.01594 -0.02624 0.08106 0.08668 0.29199 1.041 0.249 1239.133 0.01930
0.01596 -0.02627 0.08116 0.08679 0.29310 0.898 0.234 1239.163 0.01933
0.01598 -0.02631 0.08127 0.08690 0.29422 1.041 0.246 1239.193 0.01935
0.01600 -0.02634 0.08137 0.08701 0.29533 0.933 0.237 1239.223 0.01937
0.01602 -0.02637 0.08147 0.08712 0.29644 0.717 0.215 1239.253 0.01940
0.01605 -0.02641 0.08158 0.08724 0.29755 0.822 0.225 1239.283 0.01942
0.01607 -0.02644 0.08168 0.08735 0.29866 0.719 0.217 1239.313 0.01945
0.01609 -0.02648 0.08179 0.08746 0.29977 0.857 0.234 1239.342 0.01947
0.01611 -0.02651 0.08189 0.08757 0.30089 0.682 0.211 1239.372 0.01950
0.01613 -0.02654 0.08200 0.08768 0.30200 0.865 0.231 1239.402 0.01952
0.01615 -0.02658 0.08210 0.08780 0.30311 1.072 0.251 1239.432 0.01955
0.01617 -0.02661 0.08221 0.08791 0.30422 0.648 0.207 1239.462 0.01957
0.01619 -0.02664 0.08231 0.08802 0.30533 0.784 0.221 1239.492 0.01960
0.01621 -0.02668 0.08242 0.08813 0.30644 0.791 0.221 1239.522 0.01962
0.01623 -0.02671 0.08252 0.08824 0.30756 0.891 0.236 1239.552 0.01964
0.01625 -0.02675 0.08263 0.08836 0.30867 0.818 0.224 1239.581 0.01967
0.01627 -0.02678 0.08273 0.08847 0.30978 0.959 0.240 1239.611 0.01969
0.01629 -0.02681 0.08284 0.08858 0.31089 0.605 0.204 1239.641 0.01972
0.01631 -0.02685 0.08294 0.08869 0.31200 0.501 0.192 1239.671 0.01974
0.01633 -0.02688 0.08305 0.08880 0.31312 0.781 0.220 1239.701 0.01977
