x y z dist_scaled dist_frac flux_norm sig_norm wavelength redshift
0.00518 -0.01637 0.05462 0.05726 0.00000 0.715 0.166 1231.245 0.01281
0.00519 -0.01640 0.05473 0.05737 0.00110 1.141 0.198 1231.275 0.01284
0.00520 -0.01643 0.05483 0.05748 0.00220 1.057 0.192 1231.305 0.01286
0.00521 -0.01646 0.05494 0.05759 0.00330 0.971 0.183 1231.335 0.01289
0.00522 -0.01650 0.05505 0.05770 0.00440 1.014 0.185 1231.365 0.01291
0.00523 -0.01653 0.05515 0.05781 0.00550 0.908 0.177 1231.395 0.01293
0.00524 -0.01656 0.05526 0.05792 0.00661 0.974 0.184 1231.425 0.01296
0.00525 -0.01659 0.05536 0.05803 0.00771 0.976 0.187 1231.454 0.01298
0.00526 -0.01662 0.05547 0.05814 0.00881 0.805 0.173 1231.484 0.01301
0.00527 -0.01666 0.05557 0.05826 0.00991 0.720 0.168 1231.514 0.01303
0.00528 -0.01669 0.05568 0.05837 0.01101 0.764 0.171 1231.544 0.01306
0.00529 -0.01672 0.05579 0.05848 0.01211 0.829 0.177 1231.574 0.01308
0.00530 -0.01675 0.05589 0.05859 0.01321 0.701 0.166 1231.604 0.01311
0.00531 -0.01678 0.05600 0.05870 0.01431 1.003 0.190 1231.634 0.01313
0.00532 -0.01681 0.05610 0.05881 0.01541 1.046 0.191 1231.664 0.01316
0.00533 -0.01685 0.05621 0.05892 0.01652 0.726 0.169 1231.693 0.01318
0.00534 -0.01688 0.05632 0.05903 0.01762 0.877 0.180 1231.723 0.01321
0.00535 -0.01691 0.05642 0.05914 0.01872 0.919 0.182 1231.753 0.01323
0.00536 -0.01694 0.05653 0.05925 0.01982 1.092 0.195 1231.783 0.01325
0.00537 -0.01697 0.05663 0.05936 0.02092 1.029 0.192 1231.813 0.01328
0.00538 -0.01700 0.05674 0.05948 0.02202 1.074 0.195 1231.843 0.01330
0.00539 -0.01704 0.05684 0.05959 0.02312 1.098 0.197 1231.873 0.01333
0.00540 -0.01707 0.05695 0.05970 0.02423 1.023 0.191 1231.903 0.01335
0.00541 -0.01710 0.05706 0.05981 0.02533 1.204 0.201 1231.932 0.01338
0.00542 -0.01713 0.05716 0.05992 0.02643 1.081 0.194 1231.962 0.01340
0.00543 -0.01716 0.05727 0.06003 0.02753 1.078 0.194 1231.992 0.01343
0.00544 -0.01719 0.05737 0.06014 0.02863 0.994 0.187 1232.022 0.01345
0.00545 -0.01723 0.05748 0.06025 0.02973 0.930 0.184 1232.052 0.01348
0.00546 -0.01726 0.05759 0.06036 0.03084 1.030 0.190 1232.082 0.01350
0.00547 -0.01729 0.05769 0.06047 0.03194 1.060 0.192 1232.112 0.01352
0.00548 -0.01732 0.05780 0.06059 0.03304 0.676 0.165 1232.142 0.01355
0.00549 -0.01735 0.05790 0.06070 0.03414 1.075 0.193 1232.171 0.01357
0.00550 -0.01739 0.05801 0.06081 0.03524 1.022 0.189 1232.201 0.01360
0.00551 -0.01742 0.05812 0.06092 0.03635 0.823 0.174 1232.231 0.01362
0.00552 -0.01745 0.05822 0.06103 0.03745 0.994 0.189 1232.261 0.01365
0.00553 -0.01748 0.05833 0.06114 0.03855 0.783 0.171 1232.291 0.01367
0.00554 -0.01751 0.05843 0.06125 0.03965 1.061 0.193 1232.321 0.01370
0.00555 -0.01754 0.05854 0.06136 0.04075 0.873 0.180 1232.351 0.01372
0.00556 -0.01758 0.05864 0.06147 0.04186 1.176 0.202 1232.381 0.01375
0.00557 -0.01761 0.05875 0.06159 0.04296 1.167 0.202 1232.411 0.01377
0.00558 -0.01764 0.05886 0.06170 0.04406 0.922 0.186 1232.440 0.01380
0.00559 -0.01767 0.05896 0.06181 0.04516 0.638 0.163 1232.470 0.01382
0.00560 -0.01770 0.05907 0.06192 0.04627 0.886 0.183 1232.500 0.01384
0.00561 -0.01773 0.05917 0.06203 0.04737 1.061 0.194 1232.530 0.01387
0.00562 -0.01777 0.05928 0.06214 0.04847 0.977 0.188 1232.560 0.01389
0.00563 -0.01780 0.05939 0.06225 0.04957 0.871 0.180 1232.590 0.01392
0.00564 -0.01783 0.05949 0.06236 0.05068 1.027 0.193 1232.620 0.01394
0.00565 -0.01786 0.05960 0.06247 0.05178 0.718 0.167 1232.650 0.01397
0.00566 -0.01789 0.05970 0.06258 0.05288 1.135 0.199 1232.679 0.01399
0.00567 -0.01792 0.05981 0.06270 0.05398 0.825 0.176 1232.709 0.01402
0.00568 -0.01796 0.05992 0.06281 0.05509 1.057 0.193 1232.739 0.01404
0.00569 -0.01799 0.06002 0.06292 0.05619 1.122 0.198 1232.769 0.01407
0.00570 -0.01802 0.06013 0.06303 0.05729 0.670 0.164 1232.799 0.01409
0.00571 -0.01805 0.06023 0.06314 0.05840 0.776 0.174 1232.829 0.01411
0.00572 -0.01808 0.06034 0.06325 0.05950 0.855 0.179 1232.859 0.01414
0.00573 -0.01812 0.06045 0.06336 0.06060 1.066 0.196 1232.889 0.01416
0.00574 -0.01815 0.06055 0.06347 0.06170 0.928 0.186 1232.918 0.01419
0.00575 -0.01818 0.06066 0.06358 0.06281 0.657 0.163 1232.948 0.01421
0.00576 -0.01821 0.06076 0.06370 0.06391 0.992 0.190 1232.978 0.01424
0.00577 -0.01824 0.06087 0.06381 0.06501 0.720 0.171 1233.008 0.01426
0.00578 -0.01827 0.06098 0.06392 0.06612 1.052 0.196 1233.038 0.01429
0.00579 -0.01831 0.06108 0.06403 0.06722 1.200 0.207 1233.068 0.01431
0.00580 -0.01834 0.06119 0.06414 0.06832 0.934 0.188 1233.098 0.01434
0.00581 -0.01837 0.06129 0.06425 0.06943 0.935 0.189 1233.128 0.01436
0.00582 -0.01840 0.06140 0.06436 0.07053 0.957 0.191 1233.157 0.01439
0.00583 -0.01843 0.06151 0.06447 0.07163 1.047 0.197 1233.187 0.01441
0.00584 -0.01846 0.06161 0.06459 0.07274 1.047 0.197 1233.217 0.01443
0.00585 -0.01850 0.06172 0.06470 0.07384 1.161 0.205 1233.247 0.01446
0.00586 -0.01853 0.06183 0.06481 0.07494 0.982 0.193 1233.277 0.01448
0.00587 -0.01856 0.06193 0.06492 0.07605 0.871 0.184 1233.307 0.01451
0.00588 -0.01859 0.06204 0.06503 0.07715 1.096 0.201 1233.337 0.01453
0.00589 -0.01862 0.06214 0.06514 0.07825 0.851 0.183 1233.367 0.01456
0.00590 -0.01866 0.06225 0.06525 0.07936 1.098 0.201 1233.397 0.01458
0.00591 -0.01869 0.06236 0.06536 0.08046 1.142 0.204 1233.426 0.01461
0.00592 -0.01872 0.06246 0.06547 0.08156 0.739 0.174 1233.456 0.01463
0.00593 -0.01875 0.06257 0.06559 0.08267 1.031 0.197 1233.486 0.01466
0.00594 -0.01878 0.06267 0.06570 0.08377 1.034 0.197 1233.516 0.01468
0.00595 -0.01881 0.06278 0.06581 0.08488 0.697 0.171 1233.546 0.01470
0.00596 -0.01885 0.06289 0.06592 0.08598 1.081 0.201 1233.576 0.01473
0.00597 -0.01888 0.06299 0.06603 0.08708 0.878 0.186 1233.606 0.01475
0.00598 -0.01891 0.06310 0.06614 0.08819 0.743 0.175 1233.636 0.01478
0.00599 -0.01894 0.06320 0.06625 0.08929 0.967 0.193 1233.665 0.01480
0.00600 -0.01897 0.06331 0.06636 0.09040 0.651 0.167 1233.695 0.01483
0.00601 -0.01901 0.06342 0.06648 0.09150 0.563 0.159 1233.725 0.01485
0.00602 -0.01904 0.06352 0.06659 0.09260 1.104 0.203 1233.755 0.01488
0.00603 -0.01907 0.06363 0.06670 0.09371 1.151 0.206 1233.785 0.01490
0.00604 -0.01910 0.06373 0.06681 0.09481 1.151 0.206 1233.815 0.01493
0.00605 -0.01913 0.06384 0.06692 0.09592 0.948 0.192 1233.845 0.01495
0.00606 -0.01916 0.06395 0.06703 0.09702 1.040 0.199 1233.875 0.01497
0.00607 -0.01920 0.06405 0.06714 0.09813 0.657 0.168 1233.904 0.01500
0.00608 -0.01923 0.06416 0.06725 0.09923 1.247 0.213 1233.934 0.01502
0.00609 -0.01926 0.06427 0.06737 0.10033 1.271 0.215 1233.964 0.01505
0.00610 -0.01929 0.06437 0.06748 0.10144 0.726 0.174 1233.994 0.01507
0.00611 -0.01932 0.06448 0.06759 0.10254 0.977 0.194 1234.024 0.01510
0.00613 -0.01936 0.06458 0.06770 0.10365 1.046 0.199 1234.054 0.01512
0.00614 -0.01939 0.06469 0.06781 0.10475 0.865 0.186 1234.084 0.01515
0.00615 -0.01942 0.06480 0.06792 0.10586 1.365 0.221 1234.114 0.01517
0.00616 -0.01945 0.06490 0.06803 0.10696 1.413 0.224 1234.143 0.01520
0.00617 -0.01948 0.06501 0.06814 0.10807 1.049 0.200 1234.173 0.01522
0.00618 -0.01951 0.06511 0.06826 0.10917 1.118 0.205 1234.203 0.01525
0.00619 -0.01955 0.06522 0.06837 0.11028 0.959 0.193 1234.233 0.01527
0.00620 -0.01958 0.06533 0.06848 0.11138 0.959 0.193 1234.263 0.01529
0.00621 -0.01961 0.06543 0.06859 0.11248 1.099 0.203 1234.293 0.01532
0.00622 -0.01964 0.06554 0.06870 0.11359 0.937 0.192 1234.323 0.01534
0.00623 -0.01967 0.06565 0.06881 0.11469 0.915 0.191 1234.353 0.01537
0.00624 -0.01971 0.06575 0.06892 0.11580 0.847 0.185 1234.383 0.01539
0.00625 -0.01974 0.06586 0.06904 0.11690 0.939 0.192 1234.412 0.01542
0.00626 -0.01977 0.06596 0.06915 0.11801 0.871 0.187 1234.442 0.01544
0.00627 -0.01980 0.06607 0.06926 0.11911 0.849 0.185 1234.472 0.01547
0.00628 -0.01983 0.06618 0.06937 0.12022 0.953 0.208 1234.502 0.01549
0.00629 -0.01986 0.06628 0.06948 0.12132 1.483 0.245 1234.532 0.01552
0.00630 -0.01990 0.06639 0.06959 0.12243 1.132 0.224 1234.562 0.01554
0.00631 -0.01993 0.06650 0.06970 0.12354 1.169 0.219 1234.592 0.01556
0.00632 -0.01996 0.06660 0.06981 0.12464 0.989 0.196 1234.622 0.01559
0.00633 -0.01999 0.06671 0.06993 0.12575 1.264 0.216 1234.651 0.01561
0.00634 -0.02002 0.06681 0.07004 0.12685 0.804 0.183 1234.681 0.01564
0.00635 -0.02006 0.06692 0.07015 0.12796 0.712 0.175 1234.711 0.01566
0.00636 -0.02009 0.06703 0.07026 0.12906 0.990 0.197 1234.741 0.01569
0.00637 -0.02012 0.06713 0.07037 0.13017 1.150 0.209 1234.771 0.01571
0.00638 -0.02015 0.06724 0.07048 0.13127 0.968 0.196 1234.801 0.01574
0.00639 -0.02018 0.06735 0.07059 0.13238 0.921 0.192 1234.831 0.01576
0.00640 -0.02021 0.06745 0.07071 0.13348 1.107 0.205 1234.861 0.01579
0.00641 -0.02025 0.06756 0.07082 0.13459 0.852 0.187 1234.890 0.01581
0.00642 -0.02028 0.06766 0.07093 0.13570 1.246 0.216 1234.920 0.01584
0.00643 -0.02031 0.06777 0.07104 0.13680 0.807 0.183 1234.950 0.01586
0.00644 -0.02034 0.06788 0.07115 0.13791 1.108 0.206 1234.980 0.01588
0.00645 -0.02037 0.06798 0.07126 0.13901 1.363 0.222 1235.010 0.01591
0.00646 -0.02041 0.06809 0.07137 0.14012 1.156 0.208 1235.040 0.01593
0.00647 -0.02044 0.06820 0.07149 0.14122 0.878 0.190 1235.070 0.01596
0.00648 -0.02047 0.06830 0.07160 0.14233 0.971 0.197 1235.100 0.01598
0.00649 -0.02050 0.06841 0.07171 0.14344 1.007 0.199 1235.129 0.01601
0.00650 -0.02053 0.06851 0.07182 0.14454 1.291 0.218 1235.159 0.01603
0.00651 -0.02057 0.06862 0.07193 0.14565 1.032 0.200 1235.189 0.01606
0.00652 -0.02060 0.06873 0.07204 0.14675 0.860 0.186 1235.219 0.01608
0.00653 -0.02063 0.06883 0.07215 0.14786 1.136 0.207 1235.249 0.01611
0.00654 -0.02066 0.06894 0.07227 0.14897 1.164 0.209 1235.279 0.01613
0.00655 -0.02069 0.06905 0.07238 0.15007 0.882 0.188 1235.309 0.01615
0.00656 -0.02072 0.06915 0.07249 0.15118 1.015 0.198 1235.339 0.01618
0.00657 -0.02076 0.06926 0.07260 0.15228 1.154 0.210 1235.369 0.01620
0.00658 -0.02079 0.06936 0.07271 0.15339 0.803 0.181 1235.398 0.01623
0.00659 -0.02082 0.06947 0.07282 0.15450 1.324 0.219 1235.428 0.01625
0.00660 -0.02085 0.06958 0.07293 0.15560 1.002 0.198 1235.458 0.01628
0.00661 -0.02088 0.06968 0.07305 0.15671 1.024 0.198 1235.488 0.01630
0.00662 -0.02092 0.06979 0.07316 0.15782 1.298 0.218 1235.518 0.01633
0.00663 -0.02095 0.06990 0.07327 0.15892 1.157 0.209 1235.548 0.01635
0.00664 -0.02098 0.07000 0.07338 0.16003 0.827 0.183 1235.578 0.01638
0.00665 -0.02101 0.07011 0.07349 0.16114 1.056 0.202 1235.608 0.01640
0.00666 -0.02104 0.07022 0.07360 0.16224 1.103 0.207 1235.637 0.01643
0.00667 -0.02108 0.07032 0.07371 0.16335 1.069 0.204 1235.667 0.01645
0.00668 -0.02111 0.07043 0.07383 0.16446 0.891 0.190 1235.697 0.01647
0.00669 -0.02114 0.07053 0.07394 0.16556 0.791 0.182 1235.727 0.01650
0.00670 -0.02117 0.07064 0.07405 0.16667 0.863 0.190 1235.757 0.01652
0.00671 -0.02120 0.07075 0.07416 0.16778 0.931 0.190 1235.787 0.01655
0.00672 -0.02123 0.07085 0.07427 0.16888 0.861 0.186 1235.817 0.01657
0.00673 -0.02127 0.07096 0.07438 0.16999 1.169 0.210 1235.847 0.01660
0.00674 -0.02130 0.07107 0.07450 0.17110 0.910 0.191 1235.876 0.01662
0.00675 -0.02133 0.07117 0.07461 0.17220 0.934 0.192 1235.906 0.01665
0.00676 -0.02136 0.07128 0.07472 0.17331 1.098 0.203 1235.936 0.01667
0.00677 -0.02139 0.07139 0.07483 0.17442 0.792 0.181 1235.966 0.01670
0.00678 -0.02143 0.07149 0.07494 0.17553 0.912 0.190 1235.996 0.01672
0.00679 -0.02146 0.07160 0.07505 0.17663 1.053 0.200 1236.026 0.01674
0.00680 -0.02149 0.07171 0.07516 0.17774 0.817 0.183 1236.056 0.01677
0.00681 -0.02152 0.07181 0.07528 0.17885 0.817 0.181 1236.086 0.01679
0.00682 -0.02155 0.07192 0.07539 0.17995 1.005 0.197 1236.115 0.01682
0.00683 -0.02159 0.07202 0.07550 0.18106 0.934 0.191 1236.145 0.01684
0.00684 -0.02162 0.07213 0.07561 0.18217 1.030 0.199 1236.175 0.01687
0.00685 -0.02165 0.07224 0.07572 0.18328 0.984 0.195 1236.205 0.01689
0.00686 -0.02168 0.07234 0.07583 0.18438 0.935 0.192 1236.235 0.01692
0.00687 -0.02171 0.07245 0.07595 0.18549 0.700 0.174 1236.265 0.01694
0.00688 -0.02174 0.07256 0.07606 0.18660 0.937 0.192 1236.295 0.01697
0.00689 -0.02178 0.07266 0.07617 0.18771 0.868 0.186 1236.325 0.01699
0.00690 -0.02181 0.07277 0.07628 0.18881 1.151 0.208 1236.355 0.01701
0.00691 -0.02184 0.07288 0.07639 0.18992 1.035 0.199 1236.384 0.01704
0.00692 -0.02187 0.07298 0.07650 0.19103 1.012 0.199 1236.414 0.01706
0.00693 -0.02190 0.07309 0.07661 0.19214 1.128 0.207 1236.444 0.01709
0.00694 -0.02194 0.07320 0.07673 0.19324 1.152 0.208 1236.474 0.01711
0.00695 -0.02197 0.07330 0.07684 0.19435 0.915 0.190 1236.504 0.01714
0.00696 -0.02200 0.07341 0.07695 0.19546 1.250 0.215 1236.534 0.01716
0.00697 -0.02203 0.07351 0.07706 0.19657 0.966 0.194 1236.564 0.01719
0.00698 -0.02206 0.07362 0.07717 0.19768 0.941 0.192 1236.594 0.01721
0.00699 -0.02210 0.07373 0.07728 0.19878 0.916 0.190 1236.623 0.01724
0.00700 -0.02213 0.07383 0.07740 0.19989 1.083 0.204 1236.653 0.01726
0.00701 -0.02216 0.07394 0.07751 0.20100 0.824 0.185 1236.683 0.01729
0.00702 -0.02219 0.07405 0.07762 0.20211 0.895 0.189 1236.713 0.01731
0.00703 -0.02222 0.07415 0.07773 0.20322 0.775 0.179 1236.743 0.01733
0.00704 -0.02226 0.07426 0.07784 0.20432 0.466 0.149 1236.773 0.01736
0.00705 -0.02229 0.07437 0.07795 0.20543 0.446 0.154 1236.803 0.01738
0.00706 -0.02232 0.07447 0.07807 0.20654 0.326 0.141 1236.833 0.01741
0.00707 -0.02235 0.07458 0.07818 0.20765 0.375 0.146 1236.862 0.01743
0.00708 -0.02238 0.07469 0.07829 0.20876 0.566 0.164 1236.892 0.01746
0.00709 -0.02241 0.07479 0.07840 0.20987 0.567 0.166 1236.922 0.01748
0.00710 -0.02245 0.07490 0.07851 0.21097 0.615 0.171 1236.952 0.01751
0.00711 -0.02248 0.07501 0.07862 0.21208 0.305 0.138 1236.982 0.01753
0.00712 -0.02251 0.07511 0.07874 0.21319 0.663 0.173 1237.012 0.01756
0.00713 -0.02254 0.07522 0.07885 0.21430 0.448 0.155 1237.042 0.01758
0.00714 -0.02257 0.07533 0.07896 0.21541 0.758 0.180 1237.072 0.01760
0.00715 -0.02261 0.07543 0.07907 0.21652 0.664 0.176 1237.101 0.01763
0.00716 -0.02264 0.07554 0.07918 0.21762 0.736 0.180 1237.131 0.01765
0.00717 -0.02267 0.07565 0.07929 0.21873 0.452 0.155 1237.161 0.01768
0.00718 -0.02270 0.07575 0.07941 0.21984 0.892 0.194 1237.191 0.01770
0.00719 -0.02273 0.07586 0.07952 0.22095 0.412 0.149 1237.221 0.01773
0.00720 -0.02277 0.07596 0.07963 0.22206 0.568 0.165 1237.251 0.01775
0.00721 -0.02280 0.07607 0.07974 0.22317 0.776 0.185 1237.281 0.01778
0.00722 -0.02283 0.07618 0.07985 0.22428 0.727 0.178 1237.311 0.01780
0.00723 -0.02286 0.07628 0.07996 0.22539 0.752 0.183 1237.341 0.01783
0.00724 -0.02289 0.07639 0.08008 0.22650 0.998 0.201 1237.370 0.01785
0.00725 -0.02293 0.07650 0.08019 0.22760 0.716 0.179 1237.400 0.01788
0.00727 -0.02296 0.07660 0.08030 0.22871 0.602 0.168 1237.430 0.01790
0.00728 -0.02299 0.07671 0.08041 0.22982 1.048 0.204 1237.460 0.01792
0.00729 -0.02302 0.07682 0.08052 0.23093 0.993 0.201 1237.490 0.01795
0.00730 -0.02305 0.07692 0.08064 0.23204 0.939 0.197 1237.520 0.01797
0.00731 -0.02309 0.07703 0.08075 0.23315 0.827 0.187 1237.550 0.01800
0.00732 -0.02312 0.07714 0.08086 0.23426 1.035 0.205 1237.580 0.01802
0.00733 -0.02315 0.07724 0.08097 0.23537 1.197 0.217 1237.609 0.01805
0.00734 -0.02318 0.07735 0.08108 0.23648 1.352 0.226 1237.639 0.01807
0.00735 -0.02321 0.07746 0.08119 0.23759 1.221 0.215 1237.669 0.01810
0.00736 -0.02325 0.07756 0.08131 0.23870 0.949 0.200 1237.699 0.01812
0.00737 -0.02328 0.07767 0.08142 0.23981 0.863 0.191 1237.729 0.01815
0.00738 -0.02331 0.07778 0.08153 0.24092 0.888 0.193 1237.759 0.01817
0.00739 -0.02334 0.07788 0.08164 0.24202 0.841 0.192 1237.789 0.01819
0.00740 -0.02337 0.07799 0.08175 0.24313 1.130 0.209 1237.819 0.01822
0.00741 -0.02341 0.07810 0.08186 0.24424 0.936 0.196 1237.848 0.01824
0.00742 -0.02344 0.07820 0.08198 0.24535 0.986 0.200 1237.878 0.01827
0.00743 -0.02347 0.07831 0.08209 0.24646 1.108 0.209 1237.908 0.01829
0.00744 -0.02350 0.07842 0.08220 0.24757 1.107 0.207 1237.938 0.01832
0.00745 -0.02353 0.07852 0.08231 0.24868 1.155 0.211 1237.968 0.01834
0.00746 -0.02356 0.07863 0.08242 0.24979 0.937 0.196 1237.998 0.01837
0.00747 -0.02360 0.07874 0.08254 0.25090 0.889 0.192 1238.028 0.01839
0.00748 -0.02363 0.07884 0.08265 0.25201 0.986 0.199 1238.058 0.01842
0.00749 -0.02366 0.07895 0.08276 0.25312 0.987 0.198 1238.087 0.01844
0.00750 -0.02369 0.07906 0.08287 0.25423 1.254 0.220 1238.117 0.01847
0.00751 -0.02372 0.07916 0.08298 0.25534 1.061 0.204 1238.147 0.01849
0.00752 -0.02376 0.07927 0.08309 0.25645 1.062 0.206 1238.177 0.01851
0.00753 -0.02379 0.07938 0.08321 0.25756 1.182 0.213 1238.207 0.01854
0.00754 -0.02382 0.07948 0.08332 0.25867 0.844 0.189 1238.237 0.01856
0.00755 -0.02385 0.07959 0.08343 0.25978 1.038 0.203 1238.267 0.01859
0.00756 -0.02388 0.07970 0.08354 0.26089 1.160 0.212 1238.297 0.01861
0.00757 -0.02392 0.07980 0.08365 0.26200 1.061 0.207 1238.327 0.01864
0.00758 -0.02395 0.07991 0.08377 0.26311 1.304 0.222 1238.356 0.01866
0.00759 -0.02398 0.08002 0.08388 0.26422 0.965 0.199 1238.386 0.01869
0.00760 -0.02401 0.08012 0.08399 0.26533 1.113 0.210 1238.416 0.01871
0.00761 -0.02404 0.08023 0.08410 0.26644 0.773 0.185 1238.446 0.01874
0.00762 -0.02408 0.08034 0.08421 0.26755 1.088 0.207 1238.476 0.01876
0.00763 -0.02411 0.08044 0.08432 0.26866 0.990 0.201 1238.506 0.01878
0.00764 -0.02414 0.08055 0.08444 0.26978 1.091 0.207 1238.536 0.01881
0.00765 -0.02417 0.08066 0.08455 0.27089 0.653 0.177 1238.566 0.01883
0.00766 -0.02420 0.08076 0.08466 0.27200 1.163 0.214 1238.595 0.01886
0.00767 -0.02424 0.08087 0.08477 0.27311 0.994 0.202 1238.625 0.01888
0.00768 -0.02427 0.08098 0.08488 0.27422 1.043 0.205 1238.655 0.01891
0.00769 -0.02430 0.08108 0.08500 0.27533 0.848 0.190 1238.685 0.01893
0.00770 -0.02433 0.08119 0.08511 0.27644 0.896 0.194 1238.715 0.01896
0.00771 -0.02436 0.08130 0.08522 0.27755 0.724 0.180 1238.745 0.01898
0.00772 -0.02440 0.08140 0.08533 0.27866 1.091 0.208 1238.775 0.01901
0.00773 -0.02443 0.08151 0.08544 0.27977 0.968 0.198 1238.805 0.01903
0.00774 -0.02446 0.08162 0.08556 0.28088 1.090 0.207 1238.834 0.01905
0.00775 -0.02449 0.08173 0.08567 0.28199 0.871 0.192 1238.864 0.01908
0.00776 -0.02452 0.08183 0.08578 0.28310 1.116 0.209 1238.894 0.01910
0.00777 -0.02456 0.08194 0.08589 0.28422 0.946 0.196 1238.924 0.01913
0.00778 -0.02459 0.08205 0.08600 0.28533 1.092 0.208 1238.954 0.01915
0.00779 -0.02462 0.08215 0.08612 0.28644 1.141 0.212 1238.984 0.01918
0.00780 -0.02465 0.08226 0.08623 0.28755 1.263 0.222 1239.014 0.01920
0.00781 -0.02468 0.08237 0.08634 0.28866 0.946 0.196 1239.044 0.01923
0.00782 -0.02472 0.08247 0.08645 0.28977 1.019 0.202 1239.073 0.01925
0.00783 -0.02475 0.08258 0.08656 0.29088 1.117 0.210 1239.103 0.01928
0.00784 -0.02478 0.08269 0.08668 0.29199 0.898 0.194 1239.133 0.01930
0.00785 -0.02481 0.08279 0.08679 0.29310 0.924 0.197 1239.163 0.01933
0.00786 -0.02484 0.08290 0.08690 0.29422 0.900 0.195 1239.193 0.01935
0.00787 -0.02488 0.08301 0.08701 0.29533 1.217 0.217 1239.223 0.01937
0.00788 -0.02491 0.08311 0.08712 0.29644 0.922 0.195 1239.253 0.01940
0.00789 -0.02494 0.08322 0.08724 0.29755 1.166 0.214 1239.283 0.01942
0.00790 -0.02497 0.08333 0.08735 0.29866 1.191 0.216 1239.313 0.01945
0.00791 -0.02500 0.08343 0.08746 0.29977 0.897 0.193 1239.342 0.01947
0.00792 -0.02504 0.08354 0.08757 0.30089 1.092 0.209 1239.372 0.01950
0.00793 -0.02507 0.08365 0.08768 0.30200 0.748 0.181 1239.402 0.01952
0.00794 -0.02510 0.08375 0.08780 0.30311 1.091 0.209 1239.432 0.01955
0.00795 -0.02513 0.08386 0.08791 0.30422 0.775 0.183 1239.462 0.01957
0.00796 -0.02516 0.08397 0.08802 0.30533 1.094 0.209 1239.492 0.01960
0.00797 -0.02520 0.08408 0.08813 0.30644 1.022 0.203 1239.522 0.01962
0.00798 -0.02523 0.08418 0.08824 0.30756 0.823 0.187 1239.552 0.01964
0.00799 -0.02526 0.08429 0.08836 0.30867 0.948 0.198 1239.581 0.01967
0.00800 -0.02529 0.08440 0.08847 0.30978 1.021 0.203 1239.611 0.01969
0.00801 -0.02532 0.08450 0.08858 0.31089 0.727 0.177 1239.641 0.01972
0.00802 -0.02536 0.08461 0.08869 0.31200 0.727 0.179 1239.671 0.01974
0.00803 -0.02539 0.08472 0.08880 0.31312 1.045 0.206 1239.701 0.01977
