x y z dist_scaled dist_frac flux_norm sig_norm wavelength redshift
0.02286 0.03233 0.04142 0.05730 0.00000 0.930 0.051 1231.257 0.01282
0.02290 0.03239 0.04150 0.05741 0.00110 0.986 0.052 1231.287 0.01285
0.02294 0.03245 0.04158 0.05752 0.00220 1.127 0.056 1231.316 0.01287
0.02299 0.03252 0.04166 0.05763 0.00331 0.851 0.049 1231.346 0.01290
0.02303 0.03258 0.04174 0.05774 0.00441 0.995 0.053 1231.376 0.01292
0.02308 0.03264 0.04182 0.05785 0.00551 0.898 0.050 1231.406 0.01294
0.02312 0.03270 0.04190 0.05797 0.00661 0.995 0.053 1231.436 0.01297
0.02317 0.03277 0.04198 0.05808 0.00771 1.039 0.054 1231.466 0.01299
0.02321 0.03283 0.04206 0.05819 0.00882 0.963 0.052 1231.496 0.01302
0.02325 0.03289 0.04214 0.05830 0.00992 0.994 0.053 1231.526 0.01304
0.02330 0.03295 0.04222 0.05841 0.01102 0.974 0.052 1231.556 0.01307
0.02334 0.03302 0.04230 0.05852 0.01212 0.940 0.051 1231.585 0.01309
0.02339 0.03308 0.04238 0.05863 0.01323 0.935 0.051 1231.615 0.01312
0.02343 0.03314 0.04246 0.05874 0.01433 0.862 0.049 1231.645 0.01314
0.02348 0.03320 0.04254 0.05885 0.01543 0.939 0.051 1231.675 0.01317
0.02352 0.03327 0.04262 0.05896 0.01653 0.931 0.051 1231.705 0.01319
0.02356 0.03333 0.04271 0.05908 0.01764 0.906 0.050 1231.735 0.01321
0.02361 0.03339 0.04279 0.05919 0.01874 1.056 0.054 1231.765 0.01324
0.02365 0.03346 0.04287 0.05930 0.01984 1.018 0.053 1231.795 0.01326
0.02370 0.03352 0.04295 0.05941 0.02095 0.974 0.052 1231.825 0.01329
0.02374 0.03358 0.04303 0.05952 0.02205 0.993 0.052 1231.855 0.01331
0.02379 0.03364 0.04311 0.05963 0.02315 0.983 0.052 1231.884 0.01334
0.02383 0.03371 0.04319 0.05974 0.02425 0.989 0.052 1231.914 0.01336
0.02387 0.03377 0.04327 0.05985 0.02536 1.067 0.054 1231.944 0.01339
0.02392 0.03383 0.04335 0.05996 0.02646 0.934 0.051 1231.974 0.01341
0.02396 0.03389 0.04343 0.06007 0.02756 1.038 0.054 1232.004 0.01344
0.02401 0.03396 0.04351 0.06019 0.02867 1.070 0.054 1232.034 0.01346
0.02405 0.03402 0.04359 0.06030 0.02977 0.974 0.052 1232.064 0.01349
0.02410 0.03408 0.04367 0.06041 0.03087 0.927 0.051 1232.094 0.01351
0.02414 0.03414 0.04375 0.06052 0.03197 0.901 0.050 1232.124 0.01353
0.02418 0.03421 0.04383 0.06063 0.03308 1.106 0.055 1232.153 0.01356
0.02423 0.03427 0.04391 0.06074 0.03418 1.037 0.053 1232.183 0.01358
0.02427 0.03433 0.04399 0.06085 0.03528 1.020 0.053 1232.213 0.01361
0.02432 0.03439 0.04407 0.06096 0.03639 0.923 0.050 1232.243 0.01363
0.02436 0.03446 0.04415 0.06107 0.03749 1.013 0.053 1232.273 0.01366
0.02441 0.03452 0.04423 0.06119 0.03859 1.021 0.053 1232.303 0.01368
0.02445 0.03458 0.04431 0.06130 0.03970 1.029 0.053 1232.333 0.01371
0.02449 0.03465 0.04439 0.06141 0.04080 0.952 0.051 1232.363 0.01373
0.02454 0.03471 0.04447 0.06152 0.04190 0.872 0.049 1232.393 0.01376
0.02458 0.03477 0.04455 0.06163 0.04301 0.968 0.052 1232.422 0.01378
0.02463 0.03483 0.04463 0.06174 0.04411 1.014 0.053 1232.452 0.01381
0.02467 0.03490 0.04471 0.06185 0.04522 0.978 0.052 1232.482 0.01383
0.02472 0.03496 0.04479 0.06196 0.04632 1.057 0.054 1232.512 0.01385
0.02476 0.03502 0.04487 0.06207 0.04742 1.013 0.053 1232.542 0.01388
0.02480 0.03508 0.04495 0.06219 0.04853 0.986 0.052 1232.572 0.01390
0.02485 0.03515 0.04503 0.06230 0.04963 1.054 0.054 1232.602 0.01393
0.02489 0.03521 0.04511 0.06241 0.05073 1.013 0.053 1232.632 0.01395
0.02494 0.03527 0.04519 0.06252 0.05184 0.916 0.050 1232.662 0.01398
0.02498 0.03534 0.04527 0.06263 0.05294 1.066 0.054 1232.691 0.01400
0.02503 0.03540 0.04536 0.06274 0.05405 1.039 0.053 1232.721 0.01403
0.02507 0.03546 0.04544 0.06285 0.05515 0.970 0.052 1232.751 0.01405
0.02511 0.03552 0.04552 0.06296 0.05625 0.975 0.052 1232.781 0.01408
0.02516 0.03559 0.04560 0.06307 0.05736 0.994 0.052 1232.811 0.01410
0.02520 0.03565 0.04568 0.06319 0.05846 0.972 0.052 1232.841 0.01412
0.02525 0.03571 0.04576 0.06330 0.05957 1.021 0.053 1232.871 0.01415
0.02529 0.03577 0.04584 0.06341 0.06067 0.999 0.052 1232.901 0.01417
0.02534 0.03584 0.04592 0.06352 0.06177 1.071 0.054 1232.931 0.01420
0.02538 0.03590 0.04600 0.06363 0.06288 0.981 0.052 1232.961 0.01422
0.02543 0.03596 0.04608 0.06374 0.06398 0.946 0.051 1232.990 0.01425
0.02547 0.03603 0.04616 0.06385 0.06509 1.001 0.052 1233.020 0.01427
0.02551 0.03609 0.04624 0.06396 0.06619 0.925 0.050 1233.050 0.01430
0.02556 0.03615 0.04632 0.06407 0.06730 0.962 0.051 1233.080 0.01432
0.02560 0.03621 0.04640 0.06419 0.06840 1.009 0.052 1233.110 0.01435
0.02565 0.03628 0.04648 0.06430 0.06951 0.998 0.052 1233.140 0.01437
0.02569 0.03634 0.04656 0.06441 0.07061 1.015 0.053 1233.170 0.01440
0.02574 0.03640 0.04664 0.06452 0.07171 1.016 0.053 1233.200 0.01442
0.02578 0.03646 0.04672 0.06463 0.07282 0.927 0.050 1233.230 0.01444
0.02582 0.03653 0.04680 0.06474 0.07392 1.077 0.054 1233.259 0.01447
0.02587 0.03659 0.04688 0.06485 0.07503 0.983 0.052 1233.289 0.01449
0.02591 0.03665 0.04696 0.06496 0.07613 0.962 0.051 1233.319 0.01452
0.02596 0.03672 0.04704 0.06508 0.07724 1.060 0.054 1233.349 0.01454
0.02600 0.03678 0.04712 0.06519 0.07834 0.958 0.051 1233.379 0.01457
0.02605 0.03684 0.04720 0.06530 0.07945 0.988 0.052 1233.409 0.01459
0.02609 0.03690 0.04728 0.06541 0.08055 0.861 0.048 1233.439 0.01462
0.02614 0.03697 0.04736 0.06552 0.08166 0.968 0.051 1233.469 0.01464
0.02618 0.03703 0.04745 0.06563 0.08276 0.892 0.049 1233.499 0.01467
0.02622 0.03709 0.04753 0.06574 0.08387 0.929 0.050 1233.528 0.01469
0.02627 0.03715 0.04761 0.06585 0.08497 0.937 0.050 1233.558 0.01471
0.02631 0.03722 0.04769 0.06597 0.08608 0.956 0.051 1233.588 0.01474
0.02636 0.03728 0.04777 0.06608 0.08718 0.912 0.050 1233.618 0.01476
0.02640 0.03734 0.04785 0.06619 0.08829 0.899 0.049 1233.648 0.01479
0.02645 0.03741 0.04793 0.06630 0.08939 1.001 0.052 1233.678 0.01481
0.02649 0.03747 0.04801 0.06641 0.09050 1.036 0.053 1233.708 0.01484
0.02653 0.03753 0.04809 0.06652 0.09160 0.984 0.052 1233.738 0.01486
0.02658 0.03759 0.04817 0.06663 0.09271 0.978 0.051 1233.768 0.01489
0.02662 0.03766 0.04825 0.06674 0.09381 1.070 0.056 1233.798 0.01491
0.02667 0.03772 0.04833 0.06686 0.09492 1.045 0.053 1233.827 0.01494
0.02671 0.03778 0.04841 0.06697 0.09603 1.034 0.053 1233.857 0.01496
0.02676 0.03785 0.04849 0.06708 0.09713 0.983 0.052 1233.887 0.01499
0.02680 0.03791 0.04857 0.06719 0.09824 1.004 0.052 1233.917 0.01501
0.02685 0.03797 0.04865 0.06730 0.09934 1.012 0.052 1233.947 0.01503
0.02689 0.03803 0.04873 0.06741 0.10045 0.877 0.049 1233.977 0.01506
0.02693 0.03810 0.04881 0.06752 0.10155 0.955 0.051 1234.007 0.01508
0.02698 0.03816 0.04889 0.06764 0.10266 1.027 0.053 1234.037 0.01511
0.02702 0.03822 0.04897 0.06775 0.10376 0.946 0.051 1234.067 0.01513
0.02707 0.03829 0.04905 0.06786 0.10487 0.852 0.048 1234.096 0.01516
0.02711 0.03835 0.04913 0.06797 0.10598 1.002 0.052 1234.126 0.01518
0.02716 0.03841 0.04922 0.06808 0.10708 0.991 0.052 1234.156 0.01521
0.02720 0.03847 0.04930 0.06819 0.10819 1.048 0.053 1234.186 0.01523
0.02724 0.03854 0.04938 0.06830 0.10929 0.929 0.050 1234.216 0.01526
0.02729 0.03860 0.04946 0.06841 0.11040 1.036 0.053 1234.246 0.01528
0.02733 0.03866 0.04954 0.06853 0.11151 1.101 0.054 1234.276 0.01530
0.02738 0.03872 0.04962 0.06864 0.11261 1.067 0.054 1234.306 0.01533
0.02742 0.03879 0.04970 0.06875 0.11372 0.974 0.051 1234.336 0.01535
0.02747 0.03885 0.04978 0.06886 0.11482 1.090 0.054 1234.365 0.01538
0.02751 0.03891 0.04986 0.06897 0.11593 1.064 0.054 1234.395 0.01540
0.02756 0.03898 0.04994 0.06908 0.11704 1.072 0.054 1234.425 0.01543
0.02760 0.03904 0.05002 0.06919 0.11814 0.916 0.050 1234.455 0.01545
0.02764 0.03910 0.05010 0.06931 0.11925 0.962 0.051 1234.485 0.01548
0.02769 0.03916 0.05018 0.06942 0.12036 0.943 0.050 1234.515 0.01550
0.02773 0.03923 0.05026 0.06953 0.12146 1.004 0.052 1234.545 0.01553
0.02778 0.03929 0.05034 0.06964 0.12257 1.025 0.052 1234.575 0.01555
0.02782 0.03935 0.05042 0.06975 0.12367 1.000 0.052 1234.605 0.01558
0.02787 0.03942 0.05050 0.06986 0.12478 0.866 0.048 1234.634 0.01560
0.02791 0.03948 0.05058 0.06997 0.12589 0.923 0.050 1234.664 0.01562
0.02796 0.03954 0.05066 0.07009 0.12699 0.990 0.052 1234.694 0.01565
0.02800 0.03960 0.05075 0.07020 0.12810 0.996 0.052 1234.724 0.01567
0.02804 0.03967 0.05083 0.07031 0.12921 0.976 0.051 1234.754 0.01570
0.02809 0.03973 0.05091 0.07042 0.13031 0.937 0.050 1234.784 0.01572
0.02813 0.03979 0.05099 0.07053 0.13142 1.047 0.053 1234.814 0.01575
0.02818 0.03986 0.05107 0.07064 0.13253 1.037 0.053 1234.844 0.01577
0.02822 0.03992 0.05115 0.07075 0.13363 1.020 0.052 1234.874 0.01580
0.02827 0.03998 0.05123 0.07087 0.13474 0.958 0.051 1234.904 0.01582
0.02831 0.04004 0.05131 0.07098 0.13585 0.995 0.052 1234.933 0.01585
0.02836 0.04011 0.05139 0.07109 0.13696 0.920 0.050 1234.963 0.01587
0.02840 0.04017 0.05147 0.07120 0.13806 0.958 0.051 1234.993 0.01590
0.02844 0.04023 0.05155 0.07131 0.13917 1.056 0.053 1235.023 0.01592
0.02849 0.04030 0.05163 0.07142 0.14028 0.946 0.050 1235.053 0.01594
0.02853 0.04036 0.05171 0.07153 0.14138 1.069 0.053 1235.083 0.01597
0.02858 0.04042 0.05179 0.07165 0.14249 0.940 0.050 1235.113 0.01599
0.02862 0.04049 0.05187 0.07176 0.14360 0.876 0.048 1235.143 0.01602
0.02867 0.04055 0.05195 0.07187 0.14471 0.916 0.050 1235.173 0.01604
0.02871 0.04061 0.05203 0.07198 0.14581 0.956 0.051 1235.202 0.01607
0.02876 0.04067 0.05211 0.07209 0.14692 0.953 0.050 1235.232 0.01609
0.02880 0.04074 0.05220 0.07220 0.14803 0.913 0.049 1235.262 0.01612
0.02885 0.04080 0.05228 0.07231 0.14913 0.921 0.050 1235.292 0.01614
0.02889 0.04086 0.05236 0.07243 0.15024 0.915 0.049 1235.322 0.01617
0.02893 0.04093 0.05244 0.07254 0.15135 1.027 0.052 1235.352 0.01619
0.02898 0.04099 0.05252 0.07265 0.15246 0.913 0.049 1235.382 0.01621
0.02902 0.04105 0.05260 0.07276 0.15356 0.987 0.051 1235.412 0.01624
0.02907 0.04111 0.05268 0.07287 0.15467 1.015 0.052 1235.442 0.01626
0.02911 0.04118 0.05276 0.07298 0.15578 1.000 0.052 1235.471 0.01629
0.02916 0.04124 0.05284 0.07310 0.15689 0.969 0.051 1235.501 0.01631
0.02920 0.04130 0.05292 0.07321 0.15800 0.999 0.052 1235.531 0.01634
0.02925 0.04137 0.05300 0.07332 0.15910 1.032 0.052 1235.561 0.01636
0.02929 0.04143 0.05308 0.07343 0.16021 0.967 0.051 1235.591 0.01639
0.02933 0.04149 0.05316 0.07354 0.16132 0.952 0.050 1235.621 0.01641
0.02938 0.04155 0.05324 0.07365 0.16243 1.021 0.052 1235.651 0.01644
0.02942 0.04162 0.05332 0.07376 0.16353 0.948 0.050 1235.681 0.01646
0.02947 0.04168 0.05340 0.07388 0.16464 1.002 0.052 1235.711 0.01649
0.02951 0.04174 0.05349 0.07399 0.16575 1.000 0.052 1235.741 0.01651
0.02956 0.04181 0.05357 0.07410 0.16686 1.006 0.052 1235.770 0.01653
0.02960 0.04187 0.05365 0.07421 0.16797 0.987 0.051 1235.800 0.01656
0.02965 0.04193 0.05373 0.07432 0.16907 0.996 0.052 1235.830 0.01658
0.02969 0.04200 0.05381 0.07443 0.17018 1.030 0.052 1235.860 0.01661
0.02973 0.04206 0.05389 0.07455 0.17129 0.911 0.049 1235.890 0.01663
0.02978 0.04212 0.05397 0.07466 0.17240 0.912 0.049 1235.920 0.01666
0.02982 0.04218 0.05405 0.07477 0.17351 0.921 0.050 1235.950 0.01668
0.02987 0.04225 0.05413 0.07488 0.17462 0.912 0.049 1235.980 0.01671
0.02991 0.04231 0.05421 0.07499 0.17572 0.992 0.051 1236.010 0.01673
0.02996 0.04237 0.05429 0.07510 0.17683 0.942 0.050 1236.039 0.01676
0.03000 0.04244 0.05437 0.07522 0.17794 0.973 0.051 1236.069 0.01678
0.03005 0.04250 0.05445 0.07533 0.17905 0.943 0.050 1236.099 0.01680
0.03009 0.04256 0.05453 0.07544 0.18016 1.071 0.053 1236.129 0.01683
0.03014 0.04262 0.05461 0.07555 0.18127 1.037 0.052 1236.159 0.01685
0.03018 0.04269 0.05470 0.07566 0.18238 0.996 0.051 1236.189 0.01688
0.03022 0.04275 0.05478 0.07577 0.18348 1.010 0.052 1236.219 0.01690
0.03027 0.04281 0.05486 0.07588 0.18459 1.012 0.052 1236.249 0.01693
0.03031 0.04288 0.05494 0.07600 0.18570 1.097 0.054 1236.279 0.01695
0.03036 0.04294 0.05502 0.07611 0.18681 0.906 0.049 1236.308 0.01698
0.03040 0.04300 0.05510 0.07622 0.18792 1.006 0.052 1236.338 0.01700
0.03045 0.04307 0.05518 0.07633 0.18903 0.857 0.048 1236.368 0.01703
0.03049 0.04313 0.05526 0.07644 0.19014 1.105 0.054 1236.398 0.01705
0.03054 0.04319 0.05534 0.07655 0.19125 1.022 0.052 1236.428 0.01708
0.03058 0.04325 0.05542 0.07667 0.19235 0.980 0.051 1236.458 0.01710
0.03063 0.04332 0.05550 0.07678 0.19346 0.926 0.050 1236.488 0.01712
0.03067 0.04338 0.05558 0.07689 0.19457 0.931 0.050 1236.518 0.01715
0.03071 0.04344 0.05566 0.07700 0.19568 0.992 0.051 1236.548 0.01717
0.03076 0.04351 0.05574 0.07711 0.19679 0.952 0.050 1236.577 0.01720
0.03080 0.04357 0.05583 0.07722 0.19790 1.045 0.053 1236.607 0.01722
0.03085 0.04363 0.05591 0.07734 0.19901 1.032 0.052 1236.637 0.01725
0.03089 0.04370 0.05599 0.07745 0.20012 0.970 0.051 1236.667 0.01727
0.03094 0.04376 0.05607 0.07756 0.20123 0.943 0.050 1236.697 0.01730
0.03098 0.04382 0.05615 0.07767 0.20234 0.954 0.050 1236.727 0.01732
0.03103 0.04388 0.05623 0.07778 0.20345 0.991 0.051 1236.757 0.01735
0.03107 0.04395 0.05631 0.07789 0.20456 1.006 0.052 1236.787 0.01737
0.03112 0.04401 0.05639 0.07801 0.20566 0.884 0.048 1236.817 0.01740
0.03116 0.04407 0.05647 0.07812 0.20677 0.897 0.049 1236.847 0.01742
0.03120 0.04414 0.05655 0.07823 0.20788 0.961 0.050 1236.876 0.01744
0.03125 0.04420 0.05663 0.07834 0.20899 1.019 0.052 1236.906 0.01747
0.03129 0.04426 0.05671 0.07845 0.21010 0.963 0.050 1236.936 0.01749
0.03134 0.04433 0.05679 0.07856 0.21121 0.968 0.051 1236.966 0.01752
0.03138 0.04439 0.05688 0.07868 0.21232 0.947 0.050 1236.996 0.01754
0.03143 0.04445 0.05696 0.07879 0.21343 0.870 0.048 1237.026 0.01757
0.03147 0.04452 0.05704 0.07890 0.21454 0.875 0.048 1237.056 0.01759
0.03152 0.04458 0.05712 0.07901 0.21565 0.862 0.048 1237.086 0.01762
0.03156 0.04464 0.05720 0.07912 0.21676 0.981 0.051 1237.116 0.01764
0.03161 0.04470 0.05728 0.07924 0.21787 0.915 0.049 1237.145 0.01767
0.03165 0.04477 0.05736 0.07935 0.21898 1.073 0.053 1237.175 0.01769
0.03169 0.04483 0.05744 0.07946 0.22009 1.012 0.052 1237.205 0.01771
0.03174 0.04489 0.05752 0.07957 0.22120 0.938 0.050 1237.235 0.01774
0.03178 0.04496 0.05760 0.07968 0.22231 0.992 0.051 1237.265 0.01776
0.03183 0.04502 0.05768 0.07979 0.22342 1.043 0.052 1237.295 0.01779
0.03187 0.04508 0.05776 0.07991 0.22453 1.066 0.053 1237.325 0.01781
0.03192 0.04515 0.05784 0.08002 0.22564 0.921 0.049 1237.355 0.01784
0.03196 0.04521 0.05793 0.08013 0.22675 0.942 0.050 1237.385 0.01786
0.03201 0.04527 0.05801 0.08024 0.22786 0.958 0.050 1237.414 0.01789
0.03205 0.04533 0.05809 0.08035 0.22897 0.918 0.049 1237.444 0.01791
0.03210 0.04540 0.05817 0.08046 0.23008 0.907 0.049 1237.474 0.01794
0.03214 0.04546 0.05825 0.08058 0.23119 1.018 0.052 1237.504 0.01796
0.03219 0.04552 0.05833 0.08069 0.23230 0.933 0.050 1237.534 0.01799
0.03223 0.04559 0.05841 0.08080 0.23341 0.962 0.050 1237.564 0.01801
0.03227 0.04565 0.05849 0.08091 0.23452 1.007 0.052 1237.594 0.01803
0.03232 0.04571 0.05857 0.08102 0.23563 0.968 0.051 1237.624 0.01806
0.03236 0.04578 0.05865 0.08114 0.23675 1.022 0.052 1237.654 0.01808
0.03241 0.04584 0.05873 0.08125 0.23786 0.986 0.051 1237.684 0.01811
0.03245 0.04590 0.05881 0.08136 0.23897 0.956 0.050 1237.713 0.01813
0.03250 0.04597 0.05890 0.08147 0.24008 1.004 0.051 1237.743 0.01816
0.03254 0.04603 0.05898 0.08158 0.24119 0.862 0.048 1237.773 0.01818
0.03259 0.04609 0.05906 0.08169 0.24230 0.952 0.050 1237.803 0.01821
0.03263 0.04615 0.05914 0.08181 0.24341 0.922 0.049 1237.833 0.01823
0.03268 0.04622 0.05922 0.08192 0.24452 1.046 0.052 1237.863 0.01826
0.03272 0.04628 0.05930 0.08203 0.24563 1.022 0.052 1237.893 0.01828
0.03277 0.04634 0.05938 0.08214 0.24674 0.971 0.051 1237.923 0.01830
0.03281 0.04641 0.05946 0.08225 0.24785 0.906 0.049 1237.953 0.01833
0.03285 0.04647 0.05954 0.08237 0.24896 1.006 0.051 1237.982 0.01835
0.03290 0.04653 0.05962 0.08248 0.25008 1.043 0.052 1238.012 0.01838
0.03294 0.04660 0.05970 0.08259 0.25119 0.887 0.048 1238.042 0.01840
0.03299 0.04666 0.05978 0.08270 0.25230 0.945 0.050 1238.072 0.01843
0.03303 0.04672 0.05987 0.08281 0.25341 1.003 0.051 1238.102 0.01845
0.03308 0.04679 0.05995 0.08293 0.25452 1.044 0.052 1238.132 0.01848
0.03312 0.04685 0.06003 0.08304 0.25563 1.018 0.052 1238.162 0.01850
0.03317 0.04691 0.06011 0.08315 0.25674 1.003 0.051 1238.192 0.01853
0.03321 0.04698 0.06019 0.08326 0.25785 0.984 0.051 1238.222 0.01855
0.03326 0.04704 0.06027 0.08337 0.25897 0.994 0.051 1238.251 0.01858
0.03330 0.04710 0.06035 0.08348 0.26008 1.016 0.052 1238.281 0.01860
0.03335 0.04716 0.06043 0.08360 0.26119 0.913 0.049 1238.311 0.01862
0.03339 0.04723 0.06051 0.08371 0.26230 1.023 0.052 1238.341 0.01865
0.03343 0.04729 0.06059 0.08382 0.26341 0.933 0.050 1238.371 0.01867
0.03348 0.04735 0.06067 0.08393 0.26452 1.047 0.052 1238.401 0.01870
0.03352 0.04742 0.06076 0.08404 0.26563 1.015 0.052 1238.431 0.01872
0.03357 0.04748 0.06084 0.08416 0.26675 1.084 0.053 1238.461 0.01875
0.03361 0.04754 0.06092 0.08427 0.26786 0.931 0.049 1238.491 0.01877
0.03366 0.04761 0.06100 0.08438 0.26897 0.860 0.048 1238.521 0.01880
0.03370 0.04767 0.06108 0.08449 0.27008 1.010 0.052 1238.550 0.01882
0.03375 0.04773 0.06116 0.08460 0.27119 0.970 0.050 1238.580 0.01885
0.03379 0.04780 0.06124 0.08472 0.27230 0.920 0.049 1238.610 0.01887
0.03384 0.04786 0.06132 0.08483 0.27342 0.928 0.049 1238.640 0.01889
0.03388 0.04792 0.06140 0.08494 0.27453 0.933 0.050 1238.670 0.01892
0.03393 0.04799 0.06148 0.08505 0.27564 0.915 0.049 1238.700 0.01894
0.03397 0.04805 0.06156 0.08516 0.27675 0.891 0.048 1238.730 0.01897
0.03401 0.04811 0.06165 0.08528 0.27786 0.870 0.048 1238.760 0.01899
0.03406 0.04818 0.06173 0.08539 0.27898 0.818 0.046 1238.790 0.01902
0.03410 0.04824 0.06181 0.08550 0.28009 0.831 0.047 1238.819 0.01904
0.03415 0.04830 0.06189 0.08561 0.28120 0.959 0.050 1238.849 0.01907
0.03419 0.04836 0.06197 0.08572 0.28231 0.925 0.049 1238.879 0.01909
0.03424 0.04843 0.06205 0.08584 0.28343 0.948 0.050 1238.909 0.01912
0.03428 0.04849 0.06213 0.08595 0.28454 0.909 0.049 1238.939 0.01914
0.03433 0.04855 0.06221 0.08606 0.28565 0.903 0.049 1238.969 0.01917
0.03437 0.04862 0.06229 0.08617 0.28676 0.896 0.048 1238.999 0.01919
0.03442 0.04868 0.06237 0.08628 0.28787 0.941 0.050 1239.029 0.01921
0.03446 0.04874 0.06245 0.08640 0.28899 0.988 0.051 1239.059 0.01924
0.03451 0.04881 0.06254 0.08651 0.29010 1.011 0.051 1239.088 0.01926
0.03455 0.04887 0.06262 0.08662 0.29121 0.956 0.050 1239.118 0.01929
0.03460 0.04893 0.06270 0.08673 0.29232 1.026 0.052 1239.148 0.01931
0.03464 0.04900 0.06278 0.08684 0.29344 0.953 0.050 1239.178 0.01934
0.03468 0.04906 0.06286 0.08696 0.29455 1.047 0.052 1239.208 0.01936
0.03473 0.04912 0.06294 0.08707 0.29566 0.952 0.050 1239.238 0.01939
0.03477 0.04919 0.06302 0.08718 0.29678 0.968 0.050 1239.268 0.01941
0.03482 0.04925 0.06310 0.08729 0.29789 0.924 0.049 1239.298 0.01944
0.03486 0.04931 0.06318 0.08740 0.29900 0.950 0.050 1239.328 0.01946
0.03491 0.04938 0.06326 0.08752 0.30011 1.051 0.052 1239.357 0.01949
0.03495 0.04944 0.06335 0.08763 0.30123 0.929 0.049 1239.387 0.01951
0.03500 0.04950 0.06343 0.08774 0.30234 0.972 0.050 1239.417 0.01953
0.03504 0.04957 0.06351 0.08785 0.30345 0.969 0.050 1239.447 0.01956
0.03509 0.04963 0.06359 0.08796 0.30457 1.033 0.052 1239.477 0.01958
0.03513 0.04969 0.06367 0.08808 0.30568 1.015 0.052 1239.507 0.01961
0.03518 0.04976 0.06375 0.08819 0.30679 0.946 0.050 1239.537 0.01963
0.03522 0.04982 0.06383 0.08830 0.30790 1.025 0.052 1239.567 0.01966
0.03527 0.04988 0.06391 0.08841 0.30902 1.003 0.051 1239.597 0.01968
0.03531 0.04994 0.06399 0.08852 0.31013 1.045 0.052 1239.627 0.01971
0.03536 0.05001 0.06407 0.08864 0.31124 0.919 0.049 1239.656 0.01973
0.03540 0.05007 0.06416 0.08875 0.31236 0.978 0.051 1239.686 0.01976
0.03544 0.05013 0.06424 0.08886 0.31347 1.074 0.053 1239.716 0.01978
0.03549 0.05020 0.06432 0.08897 0.31458 0.857 0.047 1239.746 0.01980
0.03553 0.05026 0.06440 0.08908 0.31570 0.974 0.051 1239.776 0.01983
0.03558 0.05032 0.06448 0.08920 0.31681 0.957 0.050 1239.806 0.01985
0.03562 0.05039 0.06456 0.08931 0.31792 0.901 0.049 1239.836 0.01988
