x y z dist_scaled dist_frac flux_norm sig_norm wavelength redshift
0.02106 -0.02396 0.04755 0.05726 0.00000 0.995 0.074 1231.245 0.01281
0.02110 -0.02400 0.04764 0.05737 0.00110 1.040 0.075 1231.275 0.01284
0.02114 -0.02405 0.04773 0.05748 0.00220 0.967 0.073 1231.305 0.01286
0.02118 -0.02410 0.04782 0.05759 0.00330 1.091 0.077 1231.335 0.01289
0.02122 -0.02414 0.04792 0.05770 0.00440 1.051 0.076 1231.365 0.01291
0.02126 -0.02419 0.04801 0.05781 0.00550 1.008 0.074 1231.395 0.01293
0.02130 -0.02424 0.04810 0.05792 0.00661 1.042 0.075 1231.425 0.01296
0.02135 -0.02428 0.04819 0.05803 0.00771 0.957 0.072 1231.454 0.01298
0.02139 -0.02433 0.04829 0.05814 0.00881 0.873 0.069 1231.484 0.01301
0.02143 -0.02438 0.04838 0.05826 0.00991 1.028 0.075 1231.514 0.01303
0.02147 -0.02442 0.04847 0.05837 0.01101 0.998 0.074 1231.544 0.01306
0.02151 -0.02447 0.04856 0.05848 0.01211 1.138 0.079 1231.574 0.01308
0.02155 -0.02452 0.04865 0.05859 0.01321 1.108 0.078 1231.604 0.01311
0.02159 -0.02456 0.04875 0.05870 0.01431 1.039 0.075 1231.634 0.01313
0.02163 -0.02461 0.04884 0.05881 0.01541 1.057 0.076 1231.664 0.01316
0.02167 -0.02465 0.04893 0.05892 0.01652 1.075 0.076 1231.693 0.01318
0.02171 -0.02470 0.04902 0.05903 0.01762 0.925 0.071 1231.723 0.01321
0.02175 -0.02475 0.04911 0.05914 0.01872 0.959 0.072 1231.753 0.01323
0.02179 -0.02479 0.04921 0.05925 0.01982 0.907 0.070 1231.783 0.01325
0.02184 -0.02484 0.04930 0.05936 0.02092 1.028 0.075 1231.813 0.01328
0.02188 -0.02489 0.04939 0.05948 0.02202 1.102 0.077 1231.843 0.01330
0.02192 -0.02493 0.04948 0.05959 0.02312 1.067 0.076 1231.873 0.01333
0.02196 -0.02498 0.04958 0.05970 0.02423 0.819 0.067 1231.903 0.01335
0.02200 -0.02503 0.04967 0.05981 0.02533 1.046 0.075 1231.932 0.01338
0.02204 -0.02507 0.04976 0.05992 0.02643 1.011 0.074 1231.962 0.01340
0.02208 -0.02512 0.04985 0.06003 0.02753 0.940 0.071 1231.992 0.01343
0.02212 -0.02517 0.04994 0.06014 0.02863 0.895 0.069 1232.022 0.01345
0.02216 -0.02521 0.05004 0.06025 0.02973 0.844 0.067 1232.052 0.01348
0.02220 -0.02526 0.05013 0.06036 0.03084 0.788 0.065 1232.082 0.01350
0.02224 -0.02530 0.05022 0.06047 0.03194 0.831 0.067 1232.112 0.01352
0.02228 -0.02535 0.05031 0.06059 0.03304 0.819 0.066 1232.142 0.01355
0.02233 -0.02540 0.05040 0.06070 0.03414 0.739 0.063 1232.171 0.01357
0.02237 -0.02544 0.05050 0.06081 0.03524 0.847 0.067 1232.201 0.01360
0.02241 -0.02549 0.05059 0.06092 0.03635 0.901 0.070 1232.231 0.01362
0.02245 -0.02554 0.05068 0.06103 0.03745 0.827 0.067 1232.261 0.01365
0.02249 -0.02558 0.05077 0.06114 0.03855 0.780 0.065 1232.291 0.01367
0.02253 -0.02563 0.05087 0.06125 0.03965 0.951 0.071 1232.321 0.01370
0.02257 -0.02568 0.05096 0.06136 0.04075 1.031 0.074 1232.351 0.01372
0.02261 -0.02572 0.05105 0.06147 0.04186 0.856 0.068 1232.381 0.01375
0.02265 -0.02577 0.05114 0.06159 0.04296 1.018 0.074 1232.411 0.01377
0.02269 -0.02582 0.05123 0.06170 0.04406 0.933 0.071 1232.440 0.01380
0.02273 -0.02586 0.05133 0.06181 0.04516 1.039 0.075 1232.470 0.01382
0.02277 -0.02591 0.05142 0.06192 0.04627 0.898 0.069 1232.500 0.01384
0.02282 -0.02596 0.05151 0.06203 0.04737 1.021 0.074 1232.530 0.01387
0.02286 -0.02600 0.05160 0.06214 0.04847 1.059 0.075 1232.560 0.01389
0.02290 -0.02605 0.05170 0.06225 0.04957 1.001 0.073 1232.590 0.01392
0.02294 -0.02609 0.05179 0.06236 0.05068 0.845 0.067 1232.620 0.01394
0.02298 -0.02614 0.05188 0.06247 0.05178 0.984 0.072 1232.650 0.01397
0.02302 -0.02619 0.05197 0.06258 0.05288 0.971 0.072 1232.679 0.01399
0.02306 -0.02623 0.05206 0.06270 0.05398 0.952 0.071 1232.709 0.01402
0.02310 -0.02628 0.05216 0.06281 0.05509 0.948 0.071 1232.739 0.01404
0.02314 -0.02633 0.05225 0.06292 0.05619 0.983 0.072 1232.769 0.01407
0.02318 -0.02637 0.05234 0.06303 0.05729 1.022 0.074 1232.799 0.01409
0.02322 -0.02642 0.05243 0.06314 0.05840 1.067 0.075 1232.829 0.01411
0.02327 -0.02647 0.05253 0.06325 0.05950 0.905 0.069 1232.859 0.01414
0.02331 -0.02651 0.05262 0.06336 0.06060 0.969 0.072 1232.889 0.01416
0.02335 -0.02656 0.05271 0.06347 0.06170 0.965 0.072 1232.918 0.01419
0.02339 -0.02661 0.05280 0.06358 0.06281 1.116 0.077 1232.948 0.01421
0.02343 -0.02665 0.05290 0.06370 0.06391 0.823 0.066 1232.978 0.01424
0.02347 -0.02670 0.05299 0.06381 0.06501 0.967 0.072 1233.008 0.01426
0.02351 -0.02675 0.05308 0.06392 0.06612 0.969 0.072 1233.038 0.01429
0.02355 -0.02679 0.05317 0.06403 0.06722 1.146 0.078 1233.068 0.01431
0.02359 -0.02684 0.05326 0.06414 0.06832 1.075 0.075 1233.098 0.01434
0.02363 -0.02689 0.05336 0.06425 0.06943 1.094 0.076 1233.128 0.01436
0.02367 -0.02693 0.05345 0.06436 0.07053 0.906 0.069 1233.157 0.01439
0.02371 -0.02698 0.05354 0.06447 0.07163 1.000 0.073 1233.187 0.01441
0.02376 -0.02702 0.05363 0.06459 0.07274 0.865 0.068 1233.217 0.01443
0.02380 -0.02707 0.05373 0.06470 0.07384 0.819 0.066 1233.247 0.01446
0.02384 -0.02712 0.05382 0.06481 0.07494 0.892 0.069 1233.277 0.01448
0.02388 -0.02716 0.05391 0.06492 0.07605 0.935 0.070 1233.307 0.01451
0.02392 -0.02721 0.05400 0.06503 0.07715 0.822 0.066 1233.337 0.01453
0.02396 -0.02726 0.05410 0.06514 0.07825 0.923 0.070 1233.367 0.01456
0.02400 -0.02730 0.05419 0.06525 0.07936 0.926 0.070 1233.397 0.01458
0.02404 -0.02735 0.05428 0.06536 0.08046 0.827 0.066 1233.426 0.01461
0.02408 -0.02740 0.05437 0.06547 0.08156 0.840 0.066 1233.456 0.01463
0.02412 -0.02744 0.05446 0.06559 0.08267 0.934 0.070 1233.486 0.01466
0.02416 -0.02749 0.05456 0.06570 0.08377 0.876 0.068 1233.516 0.01468
0.02421 -0.02754 0.05465 0.06581 0.08488 0.913 0.069 1233.546 0.01470
0.02425 -0.02758 0.05474 0.06592 0.08598 0.979 0.080 1233.576 0.01473
0.02429 -0.02763 0.05483 0.06603 0.08708 1.014 0.081 1233.606 0.01475
0.02433 -0.02768 0.05493 0.06614 0.08819 1.057 0.083 1233.636 0.01478
0.02437 -0.02772 0.05502 0.06625 0.08929 0.871 0.075 1233.665 0.01480
0.02441 -0.02777 0.05511 0.06636 0.09040 0.994 0.080 1233.695 0.01483
0.02445 -0.02782 0.05520 0.06648 0.09150 0.998 0.080 1233.725 0.01485
0.02449 -0.02786 0.05530 0.06659 0.09260 1.175 0.087 1233.755 0.01488
0.02453 -0.02791 0.05539 0.06670 0.09371 0.957 0.079 1233.785 0.01490
0.02457 -0.02796 0.05548 0.06681 0.09481 0.955 0.078 1233.815 0.01493
0.02461 -0.02800 0.05557 0.06692 0.09592 1.117 0.085 1233.845 0.01495
0.02466 -0.02805 0.05567 0.06703 0.09702 0.972 0.079 1233.875 0.01497
0.02470 -0.02809 0.05576 0.06714 0.09813 0.996 0.080 1233.904 0.01500
0.02474 -0.02814 0.05585 0.06725 0.09923 0.947 0.078 1233.934 0.01502
0.02478 -0.02819 0.05594 0.06737 0.10033 1.068 0.083 1233.964 0.01505
0.02482 -0.02823 0.05604 0.06748 0.10144 1.048 0.082 1233.994 0.01507
0.02486 -0.02828 0.05613 0.06759 0.10254 0.935 0.078 1234.024 0.01510
0.02490 -0.02833 0.05622 0.06770 0.10365 1.114 0.085 1234.054 0.01512
0.02494 -0.02837 0.05631 0.06781 0.10475 0.933 0.077 1234.084 0.01515
0.02498 -0.02842 0.05640 0.06792 0.10586 0.968 0.079 1234.114 0.01517
0.02502 -0.02847 0.05650 0.06803 0.10696 0.948 0.078 1234.143 0.01520
0.02506 -0.02851 0.05659 0.06814 0.10807 0.943 0.078 1234.173 0.01522
0.02511 -0.02856 0.05668 0.06826 0.10917 1.009 0.080 1234.203 0.01525
0.02515 -0.02861 0.05677 0.06837 0.11028 0.920 0.077 1234.233 0.01527
0.02519 -0.02865 0.05687 0.06848 0.11138 0.924 0.077 1234.263 0.01529
0.02523 -0.02870 0.05696 0.06859 0.11248 0.975 0.079 1234.293 0.01532
0.02527 -0.02875 0.05705 0.06870 0.11359 1.092 0.084 1234.323 0.01534
0.02531 -0.02879 0.05714 0.06881 0.11469 1.060 0.082 1234.353 0.01537
0.02535 -0.02884 0.05724 0.06892 0.11580 0.912 0.076 1234.383 0.01539
0.02539 -0.02889 0.05733 0.06904 0.11690 0.899 0.076 1234.412 0.01542
0.02543 -0.02893 0.05742 0.06915 0.11801 0.920 0.077 1234.442 0.01544
0.02547 -0.02898 0.05751 0.06926 0.11911 1.093 0.083 1234.472 0.01547
0.02552 -0.02903 0.05761 0.06937 0.12022 1.083 0.083 1234.502 0.01549
0.02556 -0.02907 0.05770 0.06948 0.12132 1.191 0.087 1234.532 0.01552
0.02560 -0.02912 0.05779 0.06959 0.12243 1.018 0.081 1234.562 0.01554
0.02564 -0.02917 0.05788 0.06970 0.12354 1.235 0.089 1234.592 0.01556
0.02568 -0.02921 0.05798 0.06981 0.12464 0.924 0.077 1234.622 0.01559
0.02572 -0.02926 0.05807 0.06993 0.12575 0.952 0.078 1234.651 0.01561
0.02576 -0.02931 0.05816 0.07004 0.12685 1.001 0.080 1234.681 0.01564
0.02580 -0.02935 0.05825 0.07015 0.12796 0.913 0.076 1234.711 0.01566
0.02584 -0.02940 0.05835 0.07026 0.12906 0.956 0.078 1234.741 0.01569
0.02588 -0.02945 0.05844 0.07037 0.13017 1.027 0.081 1234.771 0.01571
0.02592 -0.02949 0.05853 0.07048 0.13127 0.846 0.073 1234.801 0.01574
0.02597 -0.02954 0.05862 0.07059 0.13238 0.842 0.073 1234.831 0.01576
0.02601 -0.02959 0.05872 0.07071 0.13348 0.951 0.078 1234.861 0.01579
0.02605 -0.02963 0.05881 0.07082 0.13459 1.063 0.082 1234.890 0.01581
0.02609 -0.02968 0.05890 0.07093 0.13570 1.036 0.081 1234.920 0.01584
0.02613 -0.02973 0.05899 0.07104 0.13680 0.878 0.074 1234.950 0.01586
0.02617 -0.02977 0.05909 0.07115 0.13791 0.967 0.078 1234.980 0.01588
0.02621 -0.02982 0.05918 0.07126 0.13901 0.978 0.079 1235.010 0.01591
0.02625 -0.02987 0.05927 0.07137 0.14012 0.858 0.074 1235.040 0.01593
0.02629 -0.02991 0.05936 0.07149 0.14122 1.092 0.083 1235.070 0.01596
0.02633 -0.02996 0.05946 0.07160 0.14233 1.040 0.081 1235.100 0.01598
0.02638 -0.03001 0.05955 0.07171 0.14344 0.999 0.079 1235.129 0.01601
0.02642 -0.03005 0.05964 0.07182 0.14454 1.033 0.081 1235.159 0.01603
0.02646 -0.03010 0.05973 0.07193 0.14565 1.070 0.082 1235.189 0.01606
0.02650 -0.03015 0.05983 0.07204 0.14675 0.983 0.079 1235.219 0.01608
0.02654 -0.03019 0.05992 0.07215 0.14786 0.875 0.074 1235.249 0.01611
0.02658 -0.03024 0.06001 0.07227 0.14897 0.985 0.079 1235.279 0.01613
0.02662 -0.03028 0.06010 0.07238 0.15007 0.966 0.078 1235.309 0.01615
0.02666 -0.03033 0.06020 0.07249 0.15118 0.936 0.077 1235.339 0.01618
0.02670 -0.03038 0.06029 0.07260 0.15228 0.945 0.077 1235.369 0.01620
0.02674 -0.03042 0.06038 0.07271 0.15339 0.966 0.078 1235.398 0.01623
0.02679 -0.03047 0.06047 0.07282 0.15450 0.963 0.078 1235.428 0.01625
0.02683 -0.03052 0.06057 0.07293 0.15560 0.978 0.078 1235.458 0.01628
0.02687 -0.03056 0.06066 0.07305 0.15671 0.922 0.076 1235.488 0.01630
0.02691 -0.03061 0.06075 0.07316 0.15782 0.934 0.076 1235.518 0.01633
0.02695 -0.03066 0.06084 0.07327 0.15892 1.097 0.083 1235.548 0.01635
0.02699 -0.03070 0.06094 0.07338 0.16003 1.000 0.079 1235.578 0.01638
0.02703 -0.03075 0.06103 0.07349 0.16114 0.838 0.072 1235.608 0.01640
0.02707 -0.03080 0.06112 0.07360 0.16224 0.928 0.076 1235.637 0.01643
0.02711 -0.03084 0.06122 0.07371 0.16335 0.864 0.073 1235.667 0.01645
0.02715 -0.03089 0.06131 0.07383 0.16446 0.970 0.078 1235.697 0.01647
0.02720 -0.03094 0.06140 0.07394 0.16556 0.967 0.078 1235.727 0.01650
0.02724 -0.03098 0.06149 0.07405 0.16667 0.929 0.076 1235.757 0.01652
0.02728 -0.03103 0.06159 0.07416 0.16778 0.963 0.084 1235.787 0.01655
0.02732 -0.03108 0.06168 0.07427 0.16888 0.845 0.078 1235.817 0.01657
0.02736 -0.03112 0.06177 0.07438 0.16999 0.880 0.080 1235.847 0.01660
0.02740 -0.03117 0.06186 0.07450 0.17110 0.958 0.083 1235.876 0.01662
0.02744 -0.03122 0.06196 0.07461 0.17220 0.854 0.079 1235.906 0.01665
0.02748 -0.03126 0.06205 0.07472 0.17331 0.943 0.083 1235.936 0.01667
0.02752 -0.03131 0.06214 0.07483 0.17442 1.055 0.087 1235.966 0.01670
0.02756 -0.03136 0.06223 0.07494 0.17553 1.007 0.085 1235.996 0.01672
0.02761 -0.03140 0.06233 0.07505 0.17663 1.184 0.092 1236.026 0.01674
0.02765 -0.03145 0.06242 0.07516 0.17774 0.991 0.085 1236.056 0.01677
0.02769 -0.03150 0.06251 0.07528 0.17885 0.950 0.083 1236.086 0.01679
0.02773 -0.03154 0.06260 0.07539 0.17995 1.110 0.089 1236.115 0.01682
0.02777 -0.03159 0.06270 0.07550 0.18106 0.976 0.084 1236.145 0.01684
0.02781 -0.03164 0.06279 0.07561 0.18217 0.983 0.084 1236.175 0.01687
0.02785 -0.03168 0.06288 0.07572 0.18328 1.108 0.089 1236.205 0.01689
0.02789 -0.03173 0.06297 0.07583 0.18438 0.996 0.085 1236.235 0.01692
0.02793 -0.03178 0.06307 0.07595 0.18549 0.782 0.079 1236.265 0.01694
0.02798 -0.03182 0.06316 0.07606 0.18660 1.087 0.088 1236.295 0.01697
0.02802 -0.03187 0.06325 0.07617 0.18771 0.857 0.078 1236.325 0.01699
0.02806 -0.03192 0.06335 0.07628 0.18881 0.872 0.079 1236.355 0.01701
0.02810 -0.03196 0.06344 0.07639 0.18992 1.066 0.087 1236.384 0.01704
0.02814 -0.03201 0.06353 0.07650 0.19103 1.064 0.087 1236.414 0.01706
0.02818 -0.03206 0.06362 0.07661 0.19214 1.022 0.086 1236.444 0.01709
0.02822 -0.03210 0.06372 0.07673 0.19324 1.037 0.086 1236.474 0.01711
0.02826 -0.03215 0.06381 0.07684 0.19435 0.910 0.081 1236.504 0.01714
0.02830 -0.03220 0.06390 0.07695 0.19546 0.912 0.081 1236.534 0.01716
0.02834 -0.03225 0.06399 0.07706 0.19657 0.961 0.083 1236.564 0.01719
0.02839 -0.03229 0.06409 0.07717 0.19768 1.108 0.089 1236.594 0.01721
0.02843 -0.03234 0.06418 0.07728 0.19878 1.092 0.088 1236.623 0.01724
0.02847 -0.03239 0.06427 0.07740 0.19989 0.866 0.079 1236.653 0.01726
0.02851 -0.03243 0.06437 0.07751 0.20100 1.034 0.086 1236.683 0.01729
0.02855 -0.03248 0.06446 0.07762 0.20211 0.902 0.080 1236.713 0.01731
0.02859 -0.03253 0.06455 0.07773 0.20322 0.999 0.084 1236.743 0.01733
0.02863 -0.03257 0.06464 0.07784 0.20432 1.050 0.086 1236.773 0.01736
0.02867 -0.03262 0.06474 0.07795 0.20543 0.885 0.079 1236.803 0.01738
0.02871 -0.03267 0.06483 0.07807 0.20654 0.877 0.079 1236.833 0.01741
0.02876 -0.03271 0.06492 0.07818 0.20765 0.930 0.081 1236.862 0.01743
0.02880 -0.03276 0.06501 0.07829 0.20876 0.949 0.082 1236.892 0.01746
0.02884 -0.03281 0.06511 0.07840 0.20987 1.054 0.087 1236.922 0.01748
0.02888 -0.03285 0.06520 0.07851 0.21097 0.954 0.082 1236.952 0.01751
0.02892 -0.03290 0.06529 0.07862 0.21208 0.985 0.084 1236.982 0.01753
0.02896 -0.03295 0.06539 0.07874 0.21319 1.026 0.085 1237.012 0.01756
0.02900 -0.03299 0.06548 0.07885 0.21430 0.766 0.078 1237.042 0.01758
0.02904 -0.03304 0.06557 0.07896 0.21541 0.853 0.081 1237.072 0.01760
0.02908 -0.03309 0.06566 0.07907 0.21652 1.023 0.085 1237.101 0.01763
0.02912 -0.03313 0.06576 0.07918 0.21762 1.029 0.085 1237.131 0.01765
0.02917 -0.03318 0.06585 0.07929 0.21873 1.017 0.085 1237.161 0.01768
0.02921 -0.03323 0.06594 0.07941 0.21984 1.091 0.088 1237.191 0.01770
0.02925 -0.03327 0.06603 0.07952 0.22095 0.970 0.083 1237.221 0.01773
0.02929 -0.03332 0.06613 0.07963 0.22206 0.824 0.076 1237.251 0.01775
0.02933 -0.03337 0.06622 0.07974 0.22317 1.048 0.086 1237.281 0.01778
0.02937 -0.03341 0.06631 0.07985 0.22428 1.151 0.090 1237.311 0.01780
0.02941 -0.03346 0.06641 0.07996 0.22539 0.963 0.082 1237.341 0.01783
0.02945 -0.03351 0.06650 0.08008 0.22650 0.862 0.078 1237.370 0.01785
0.02949 -0.03355 0.06659 0.08019 0.22760 0.856 0.078 1237.400 0.01788
0.02954 -0.03360 0.06668 0.08030 0.22871 0.869 0.078 1237.430 0.01790
0.02958 -0.03365 0.06678 0.08041 0.22982 0.944 0.081 1237.460 0.01792
0.02962 -0.03369 0.06687 0.08052 0.23093 0.869 0.078 1237.490 0.01795
0.02966 -0.03374 0.06696 0.08064 0.23204 0.957 0.082 1237.520 0.01797
0.02970 -0.03379 0.06706 0.08075 0.23315 0.968 0.082 1237.550 0.01800
0.02974 -0.03383 0.06715 0.08086 0.23426 0.919 0.080 1237.580 0.01802
0.02978 -0.03388 0.06724 0.08097 0.23537 0.914 0.080 1237.609 0.01805
0.02982 -0.03393 0.06733 0.08108 0.23648 0.887 0.079 1237.639 0.01807
0.02986 -0.03397 0.06743 0.08119 0.23759 0.922 0.080 1237.669 0.01810
0.02991 -0.03402 0.06752 0.08131 0.23870 0.930 0.081 1237.699 0.01812
0.02995 -0.03407 0.06761 0.08142 0.23981 1.001 0.084 1237.729 0.01815
0.02999 -0.03411 0.06770 0.08153 0.24092 1.161 0.090 1237.759 0.01817
0.03003 -0.03416 0.06780 0.08164 0.24202 0.975 0.083 1237.789 0.01819
0.03007 -0.03421 0.06789 0.08175 0.24313 1.085 0.087 1237.819 0.01822
0.03011 -0.03425 0.06798 0.08186 0.24424 0.863 0.078 1237.848 0.01824
0.03015 -0.03430 0.06808 0.08198 0.24535 0.977 0.083 1237.878 0.01827
0.03019 -0.03435 0.06817 0.08209 0.24646 1.055 0.086 1237.908 0.01829
0.03023 -0.03440 0.06826 0.08220 0.24757 0.982 0.083 1237.938 0.01832
0.03028 -0.03444 0.06835 0.08231 0.24868 0.897 0.079 1237.968 0.01834
0.03032 -0.03449 0.06845 0.08242 0.24979 1.024 0.084 1237.998 0.01837
0.03036 -0.03454 0.06854 0.08254 0.25090 0.999 0.083 1238.028 0.01839
0.03040 -0.03458 0.06863 0.08265 0.25201 0.939 0.081 1238.058 0.01842
0.03044 -0.03463 0.06873 0.08276 0.25312 0.862 0.077 1238.087 0.01844
0.03048 -0.03468 0.06882 0.08287 0.25423 1.013 0.084 1238.117 0.01847
0.03052 -0.03472 0.06891 0.08298 0.25534 1.003 0.083 1238.147 0.01849
0.03056 -0.03477 0.06900 0.08309 0.25645 0.765 0.073 1238.177 0.01851
0.03060 -0.03482 0.06910 0.08321 0.25756 1.036 0.085 1238.207 0.01854
0.03065 -0.03486 0.06919 0.08332 0.25867 0.867 0.078 1238.237 0.01856
0.03069 -0.03491 0.06928 0.08343 0.25978 0.931 0.080 1238.267 0.01859
0.03073 -0.03496 0.06938 0.08354 0.26089 1.004 0.083 1238.297 0.01861
0.03077 -0.03500 0.06947 0.08365 0.26200 1.088 0.087 1238.327 0.01864
0.03081 -0.03505 0.06956 0.08377 0.26311 0.980 0.093 1238.356 0.01866
0.03085 -0.03510 0.06965 0.08388 0.26422 0.913 0.098 1238.386 0.01869
0.03089 -0.03514 0.06975 0.08399 0.26533 1.029 0.098 1238.416 0.01871
0.03093 -0.03519 0.06984 0.08410 0.26644 0.949 0.100 1238.446 0.01874
0.03098 -0.03524 0.06993 0.08421 0.26755 1.124 0.103 1238.476 0.01876
0.03102 -0.03528 0.07003 0.08432 0.26866 1.055 0.100 1238.506 0.01878
0.03106 -0.03533 0.07012 0.08444 0.26978 0.986 0.096 1238.536 0.01881
0.03110 -0.03538 0.07021 0.08455 0.27089 1.048 0.105 1238.566 0.01883
0.03114 -0.03542 0.07031 0.08466 0.27200 1.037 0.099 1238.595 0.01886
0.03118 -0.03547 0.07040 0.08477 0.27311 1.131 0.103 1238.625 0.01888
0.03122 -0.03552 0.07049 0.08488 0.27422 0.875 0.096 1238.655 0.01891
0.03126 -0.03557 0.07058 0.08500 0.27533 1.098 0.107 1238.685 0.01893
0.03130 -0.03561 0.07068 0.08511 0.27644 0.825 0.094 1238.715 0.01896
0.03135 -0.03566 0.07077 0.08522 0.27755 0.930 0.105 1238.745 0.01898
0.03139 -0.03571 0.07086 0.08533 0.27866 0.888 0.103 1238.775 0.01901
0.03143 -0.03575 0.07096 0.08544 0.27977 0.952 0.100 1238.805 0.01903
0.03147 -0.03580 0.07105 0.08556 0.28088 0.906 0.092 1238.834 0.01905
0.03151 -0.03585 0.07114 0.08567 0.28199 0.921 0.098 1238.864 0.01908
0.03155 -0.03589 0.07123 0.08578 0.28310 0.952 0.100 1238.894 0.01910
0.03159 -0.03594 0.07133 0.08589 0.28422 0.698 0.092 1238.924 0.01913
0.03163 -0.03599 0.07142 0.08600 0.28533 0.913 0.098 1238.954 0.01915
0.03167 -0.03603 0.07151 0.08612 0.28644 0.728 0.094 1238.984 0.01918
0.03172 -0.03608 0.07161 0.08623 0.28755 0.795 0.098 1239.014 0.01920
0.03176 -0.03613 0.07170 0.08634 0.28866 0.907 0.098 1239.044 0.01923
0.03180 -0.03617 0.07179 0.08645 0.28977 1.031 0.098 1239.073 0.01925
0.03184 -0.03622 0.07189 0.08656 0.29088 1.002 0.102 1239.103 0.01928
0.03188 -0.03627 0.07198 0.08668 0.29199 0.986 0.101 1239.133 0.01930
0.03192 -0.03631 0.07207 0.08679 0.29310 0.840 0.100 1239.163 0.01933
0.03196 -0.03636 0.07216 0.08690 0.29422 0.918 0.103 1239.193 0.01935
0.03200 -0.03641 0.07226 0.08701 0.29533 1.123 0.102 1239.223 0.01937
0.03205 -0.03646 0.07235 0.08712 0.29644 0.996 0.102 1239.253 0.01940
0.03209 -0.03650 0.07244 0.08724 0.29755 1.082 0.100 1239.283 0.01942
0.03213 -0.03655 0.07254 0.08735 0.29866 0.902 0.097 1239.313 0.01945
0.03217 -0.03660 0.07263 0.08746 0.29977 1.088 0.100 1239.342 0.01947
0.03221 -0.03664 0.07272 0.08757 0.30089 1.003 0.096 1239.372 0.01950
0.03225 -0.03669 0.07282 0.08768 0.30200 1.016 0.097 1239.402 0.01952
0.03229 -0.03674 0.07291 0.08780 0.30311 1.099 0.101 1239.432 0.01955
0.03233 -0.03678 0.07300 0.08791 0.30422 1.129 0.102 1239.462 0.01957
0.03238 -0.03683 0.07309 0.08802 0.30533 0.881 0.096 1239.492 0.01960
0.03242 -0.03688 0.07319 0.08813 0.30644 1.134 0.102 1239.522 0.01962
0.03246 -0.03692 0.07328 0.08824 0.30756 1.055 0.099 1239.552 0.01964
0.03250 -0.03697 0.07337 0.08836 0.30867 0.932 0.098 1239.581 0.01967
0.03254 -0.03702 0.07347 0.08847 0.30978 1.068 0.099 1239.611 0.01969
0.03258 -0.03706 0.07356 0.08858 0.31089 0.802 0.097 1239.641 0.01972
0.03262 -0.03711 0.07365 0.08869 0.31200 1.127 0.107 1239.671 0.01974
0.03266 -0.03716 0.07375 0.08880 0.31312 0.892 0.096 1239.701 0.01977
