x y z dist_scaled dist_frac flux_norm sig_norm wavelength redshift
0.01209 -0.02826 0.04831 0.05726 0.00000 1.019 0.053 1231.245 0.01281
0.01212 -0.02831 0.04840 0.05737 0.00110 0.911 0.050 1231.275 0.01284
0.01214 -0.02837 0.04849 0.05748 0.00220 1.099 0.055 1231.305 0.01286
0.01216 -0.02842 0.04859 0.05759 0.00330 1.027 0.053 1231.335 0.01289
0.01219 -0.02848 0.04868 0.05770 0.00440 1.036 0.053 1231.365 0.01291
0.01221 -0.02853 0.04878 0.05781 0.00550 0.986 0.052 1231.395 0.01293
0.01223 -0.02859 0.04887 0.05792 0.00661 1.088 0.057 1231.425 0.01296
0.01226 -0.02864 0.04896 0.05803 0.00771 1.016 0.053 1231.454 0.01298
0.01228 -0.02870 0.04906 0.05814 0.00881 1.028 0.054 1231.484 0.01301
0.01230 -0.02875 0.04915 0.05826 0.00991 1.020 0.054 1231.514 0.01303
0.01233 -0.02881 0.04924 0.05837 0.01101 1.016 0.054 1231.544 0.01306
0.01235 -0.02886 0.04934 0.05848 0.01211 0.998 0.054 1231.574 0.01308
0.01237 -0.02892 0.04943 0.05859 0.01321 0.991 0.053 1231.604 0.01311
0.01240 -0.02897 0.04952 0.05870 0.01431 0.958 0.053 1231.634 0.01313
0.01242 -0.02903 0.04962 0.05881 0.01541 1.041 0.055 1231.664 0.01316
0.01244 -0.02908 0.04971 0.05892 0.01652 1.137 0.057 1231.693 0.01318
0.01247 -0.02913 0.04980 0.05903 0.01762 1.032 0.055 1231.723 0.01321
0.01249 -0.02919 0.04990 0.05914 0.01872 1.031 0.054 1231.753 0.01323
0.01251 -0.02924 0.04999 0.05925 0.01982 0.987 0.053 1231.783 0.01325
0.01254 -0.02930 0.05009 0.05936 0.02092 0.920 0.051 1231.813 0.01328
0.01256 -0.02935 0.05018 0.05948 0.02202 1.068 0.055 1231.843 0.01330
0.01258 -0.02941 0.05027 0.05959 0.02312 0.972 0.053 1231.873 0.01333
0.01261 -0.02946 0.05037 0.05970 0.02423 1.016 0.053 1231.903 0.01335
0.01263 -0.02952 0.05046 0.05981 0.02533 1.112 0.055 1231.932 0.01338
0.01265 -0.02957 0.05055 0.05992 0.02643 1.046 0.054 1231.962 0.01340
0.01268 -0.02963 0.05065 0.06003 0.02753 0.984 0.051 1231.992 0.01343
0.01270 -0.02968 0.05074 0.06014 0.02863 0.928 0.051 1232.022 0.01345
0.01272 -0.02974 0.05083 0.06025 0.02973 0.998 0.053 1232.052 0.01348
0.01275 -0.02979 0.05093 0.06036 0.03084 0.954 0.052 1232.082 0.01350
0.01277 -0.02985 0.05102 0.06047 0.03194 0.922 0.051 1232.112 0.01352
0.01279 -0.02990 0.05112 0.06059 0.03304 1.071 0.055 1232.142 0.01355
0.01282 -0.02996 0.05121 0.06070 0.03414 1.003 0.053 1232.171 0.01357
0.01284 -0.03001 0.05130 0.06081 0.03524 1.100 0.058 1232.201 0.01360
0.01286 -0.03007 0.05140 0.06092 0.03635 0.906 0.051 1232.231 0.01362
0.01289 -0.03012 0.05149 0.06103 0.03745 1.044 0.054 1232.261 0.01365
0.01291 -0.03018 0.05158 0.06114 0.03855 0.981 0.053 1232.291 0.01367
0.01294 -0.03023 0.05168 0.06125 0.03965 1.076 0.055 1232.321 0.01370
0.01296 -0.03029 0.05177 0.06136 0.04075 1.115 0.056 1232.351 0.01372
0.01298 -0.03034 0.05187 0.06147 0.04186 1.109 0.056 1232.381 0.01375
0.01301 -0.03039 0.05196 0.06159 0.04296 1.021 0.054 1232.411 0.01377
0.01303 -0.03045 0.05205 0.06170 0.04406 1.061 0.053 1232.440 0.01380
0.01305 -0.03050 0.05215 0.06181 0.04516 1.039 0.052 1232.470 0.01382
0.01308 -0.03056 0.05224 0.06192 0.04627 1.002 0.051 1232.500 0.01384
0.01310 -0.03061 0.05233 0.06203 0.04737 1.010 0.051 1232.530 0.01387
0.01312 -0.03067 0.05243 0.06214 0.04847 1.020 0.052 1232.560 0.01389
0.01315 -0.03072 0.05252 0.06225 0.04957 1.085 0.053 1232.590 0.01392
0.01317 -0.03078 0.05261 0.06236 0.05068 0.976 0.051 1232.620 0.01394
0.01319 -0.03083 0.05271 0.06247 0.05178 0.962 0.050 1232.650 0.01397
0.01322 -0.03089 0.05280 0.06258 0.05288 0.978 0.049 1232.679 0.01399
0.01324 -0.03094 0.05290 0.06270 0.05398 0.988 0.049 1232.709 0.01402
0.01326 -0.03100 0.05299 0.06281 0.05509 1.085 0.052 1232.739 0.01404
0.01329 -0.03105 0.05308 0.06292 0.05619 0.950 0.048 1232.769 0.01407
0.01331 -0.03111 0.05318 0.06303 0.05729 0.962 0.049 1232.799 0.01409
0.01333 -0.03116 0.05327 0.06314 0.05840 1.000 0.049 1232.829 0.01411
0.01336 -0.03122 0.05336 0.06325 0.05950 0.930 0.048 1232.859 0.01414
0.01338 -0.03127 0.05346 0.06336 0.06060 0.946 0.048 1232.889 0.01416
0.01340 -0.03133 0.05355 0.06347 0.06170 0.920 0.047 1232.918 0.01419
0.01343 -0.03138 0.05365 0.06358 0.06281 0.955 0.048 1232.948 0.01421
0.01345 -0.03144 0.05374 0.06370 0.06391 1.049 0.051 1232.978 0.01424
0.01347 -0.03149 0.05383 0.06381 0.06501 0.975 0.049 1233.008 0.01426
0.01350 -0.03155 0.05393 0.06392 0.06612 1.037 0.050 1233.038 0.01429
0.01352 -0.03160 0.05402 0.06403 0.06722 0.961 0.048 1233.068 0.01431
0.01355 -0.03166 0.05411 0.06414 0.06832 0.945 0.048 1233.098 0.01434
0.01357 -0.03171 0.05421 0.06425 0.06943 1.010 0.049 1233.128 0.01436
0.01359 -0.03177 0.05430 0.06436 0.07053 1.084 0.051 1233.157 0.01439
0.01362 -0.03182 0.05440 0.06447 0.07163 0.964 0.048 1233.187 0.01441
0.01364 -0.03188 0.05449 0.06459 0.07274 1.081 0.051 1233.217 0.01443
0.01366 -0.03193 0.05458 0.06470 0.07384 0.938 0.048 1233.247 0.01446
0.01369 -0.03199 0.05468 0.06481 0.07494 0.929 0.049 1233.277 0.01448
0.01371 -0.03204 0.05477 0.06492 0.07605 0.958 0.048 1233.307 0.01451
0.01373 -0.03210 0.05487 0.06503 0.07715 0.983 0.049 1233.337 0.01453
0.01376 -0.03215 0.05496 0.06514 0.07825 0.987 0.049 1233.367 0.01456
0.01378 -0.03220 0.05505 0.06525 0.07936 0.916 0.047 1233.397 0.01458
0.01380 -0.03226 0.05515 0.06536 0.08046 0.975 0.048 1233.426 0.01461
0.01383 -0.03231 0.05524 0.06547 0.08156 0.988 0.049 1233.456 0.01463
0.01385 -0.03237 0.05533 0.06559 0.08267 0.988 0.049 1233.486 0.01466
0.01387 -0.03242 0.05543 0.06570 0.08377 0.889 0.046 1233.516 0.01468
0.01390 -0.03248 0.05552 0.06581 0.08488 0.967 0.048 1233.546 0.01470
0.01392 -0.03253 0.05562 0.06592 0.08598 0.954 0.048 1233.576 0.01473
0.01394 -0.03259 0.05571 0.06603 0.08708 1.015 0.049 1233.606 0.01475
0.01397 -0.03264 0.05580 0.06614 0.08819 0.917 0.047 1233.636 0.01478
0.01399 -0.03270 0.05590 0.06625 0.08929 1.019 0.049 1233.665 0.01480
0.01401 -0.03275 0.05599 0.06636 0.09040 1.073 0.050 1233.695 0.01483
0.01404 -0.03281 0.05608 0.06648 0.09150 0.982 0.048 1233.725 0.01485
0.01406 -0.03286 0.05618 0.06659 0.09260 1.076 0.050 1233.755 0.01488
0.01409 -0.03292 0.05627 0.06670 0.09371 1.034 0.049 1233.785 0.01490
0.01411 -0.03297 0.05637 0.06681 0.09481 1.019 0.049 1233.815 0.01493
0.01413 -0.03303 0.05646 0.06692 0.09592 1.061 0.050 1233.845 0.01495
0.01416 -0.03308 0.05655 0.06703 0.09702 0.909 0.047 1233.875 0.01497
0.01418 -0.03314 0.05665 0.06714 0.09813 0.986 0.049 1233.904 0.01500
0.01420 -0.03319 0.05674 0.06725 0.09923 0.971 0.048 1233.934 0.01502
0.01423 -0.03325 0.05684 0.06737 0.10033 1.016 0.049 1233.964 0.01505
0.01425 -0.03330 0.05693 0.06748 0.10144 1.027 0.049 1233.994 0.01507
0.01427 -0.03336 0.05702 0.06759 0.10254 0.895 0.046 1234.024 0.01510
0.01430 -0.03341 0.05712 0.06770 0.10365 0.997 0.048 1234.054 0.01512
0.01432 -0.03347 0.05721 0.06781 0.10475 1.057 0.052 1234.084 0.01515
0.01434 -0.03352 0.05731 0.06792 0.10586 0.991 0.048 1234.114 0.01517
0.01437 -0.03358 0.05740 0.06803 0.10696 0.957 0.047 1234.143 0.01520
0.01439 -0.03363 0.05749 0.06814 0.10807 1.010 0.049 1234.173 0.01522
0.01441 -0.03369 0.05759 0.06826 0.10917 0.944 0.047 1234.203 0.01525
0.01444 -0.03374 0.05768 0.06837 0.11028 0.929 0.047 1234.233 0.01527
0.01446 -0.03380 0.05777 0.06848 0.11138 1.054 0.050 1234.263 0.01529
0.01448 -0.03385 0.05787 0.06859 0.11248 0.969 0.048 1234.293 0.01532
0.01451 -0.03391 0.05796 0.06870 0.11359 0.991 0.048 1234.323 0.01534
0.01453 -0.03396 0.05806 0.06881 0.11469 0.881 0.045 1234.353 0.01537
0.01456 -0.03402 0.05815 0.06892 0.11580 0.938 0.047 1234.383 0.01539
0.01458 -0.03407 0.05824 0.06904 0.11690 0.901 0.046 1234.412 0.01542
0.01460 -0.03413 0.05834 0.06915 0.11801 0.864 0.046 1234.442 0.01544
0.01463 -0.03418 0.05843 0.06926 0.11911 0.925 0.048 1234.472 0.01547
0.01465 -0.03424 0.05853 0.06937 0.12022 0.998 0.050 1234.502 0.01549
0.01467 -0.03429 0.05862 0.06948 0.12132 0.901 0.047 1234.532 0.01552
0.01470 -0.03435 0.05871 0.06959 0.12243 0.925 0.048 1234.562 0.01554
0.01472 -0.03440 0.05881 0.06970 0.12354 0.892 0.047 1234.592 0.01556
0.01474 -0.03446 0.05890 0.06981 0.12464 0.857 0.046 1234.622 0.01559
0.01477 -0.03451 0.05900 0.06993 0.12575 0.901 0.047 1234.651 0.01561
0.01479 -0.03457 0.05909 0.07004 0.12685 0.907 0.047 1234.681 0.01564
0.01481 -0.03462 0.05918 0.07015 0.12796 0.787 0.044 1234.711 0.01566
0.01484 -0.03468 0.05928 0.07026 0.12906 0.718 0.042 1234.741 0.01569
0.01486 -0.03473 0.05937 0.07037 0.13017 0.671 0.040 1234.771 0.01571
0.01488 -0.03479 0.05947 0.07048 0.13127 0.598 0.038 1234.801 0.01574
0.01491 -0.03484 0.05956 0.07059 0.13238 0.495 0.035 1234.831 0.01576
0.01493 -0.03490 0.05965 0.07071 0.13348 0.444 0.033 1234.861 0.01579
0.01496 -0.03495 0.05975 0.07082 0.13459 0.441 0.033 1234.890 0.01581
0.01498 -0.03501 0.05984 0.07093 0.13570 0.465 0.034 1234.920 0.01584
0.01500 -0.03506 0.05994 0.07104 0.13680 0.460 0.033 1234.950 0.01586
0.01503 -0.03512 0.06003 0.07115 0.13791 0.538 0.036 1234.980 0.01588
0.01505 -0.03517 0.06012 0.07126 0.13901 0.693 0.041 1235.010 0.01591
0.01507 -0.03523 0.06022 0.07137 0.14012 0.726 0.042 1235.040 0.01593
0.01510 -0.03528 0.06031 0.07149 0.14122 0.867 0.046 1235.070 0.01596
0.01512 -0.03534 0.06041 0.07160 0.14233 0.872 0.046 1235.100 0.01598
0.01514 -0.03539 0.06050 0.07171 0.14344 0.915 0.047 1235.129 0.01601
0.01517 -0.03545 0.06059 0.07182 0.14454 0.928 0.046 1235.159 0.01603
0.01519 -0.03550 0.06069 0.07193 0.14565 0.965 0.047 1235.189 0.01606
0.01521 -0.03556 0.06078 0.07204 0.14675 0.865 0.044 1235.219 0.01608
0.01524 -0.03561 0.06088 0.07215 0.14786 0.799 0.042 1235.249 0.01611
0.01526 -0.03567 0.06097 0.07227 0.14897 0.971 0.047 1235.279 0.01613
0.01528 -0.03572 0.06106 0.07238 0.15007 0.986 0.047 1235.309 0.01615
0.01531 -0.03578 0.06116 0.07249 0.15118 0.939 0.046 1235.339 0.01618
0.01533 -0.03583 0.06125 0.07260 0.15228 1.086 0.049 1235.369 0.01620
0.01536 -0.03589 0.06135 0.07271 0.15339 1.009 0.048 1235.398 0.01623
0.01538 -0.03594 0.06144 0.07282 0.15450 0.915 0.045 1235.428 0.01625
0.01540 -0.03600 0.06153 0.07293 0.15560 0.885 0.045 1235.458 0.01628
0.01543 -0.03605 0.06163 0.07305 0.15671 0.871 0.044 1235.488 0.01630
0.01545 -0.03611 0.06172 0.07316 0.15782 0.944 0.046 1235.518 0.01633
0.01547 -0.03616 0.06182 0.07327 0.15892 0.891 0.045 1235.548 0.01635
0.01550 -0.03622 0.06191 0.07338 0.16003 0.870 0.044 1235.578 0.01638
0.01552 -0.03627 0.06200 0.07349 0.16114 0.950 0.046 1235.608 0.01640
0.01554 -0.03633 0.06210 0.07360 0.16224 0.885 0.044 1235.637 0.01643
0.01557 -0.03638 0.06219 0.07371 0.16335 0.939 0.046 1235.667 0.01645
0.01559 -0.03644 0.06229 0.07383 0.16446 0.964 0.046 1235.697 0.01647
0.01561 -0.03649 0.06238 0.07394 0.16556 1.014 0.048 1235.727 0.01650
0.01564 -0.03655 0.06247 0.07405 0.16667 0.988 0.047 1235.757 0.01652
0.01566 -0.03660 0.06257 0.07416 0.16778 1.021 0.048 1235.787 0.01655
0.01568 -0.03666 0.06266 0.07427 0.16888 0.977 0.047 1235.817 0.01657
0.01571 -0.03671 0.06276 0.07438 0.16999 0.956 0.046 1235.847 0.01660
0.01573 -0.03677 0.06285 0.07450 0.17110 0.923 0.045 1235.876 0.01662
0.01576 -0.03682 0.06294 0.07461 0.17220 0.977 0.047 1235.906 0.01665
0.01578 -0.03688 0.06304 0.07472 0.17331 0.972 0.046 1235.936 0.01667
0.01580 -0.03693 0.06313 0.07483 0.17442 0.915 0.045 1235.966 0.01670
0.01583 -0.03699 0.06323 0.07494 0.17553 0.904 0.045 1235.996 0.01672
0.01585 -0.03704 0.06332 0.07505 0.17663 0.926 0.045 1236.026 0.01674
0.01587 -0.03710 0.06342 0.07516 0.17774 0.914 0.045 1236.056 0.01677
0.01590 -0.03715 0.06351 0.07528 0.17885 1.025 0.048 1236.086 0.01679
0.01592 -0.03721 0.06360 0.07539 0.17995 0.945 0.046 1236.115 0.01682
0.01594 -0.03726 0.06370 0.07550 0.18106 0.947 0.046 1236.145 0.01684
0.01597 -0.03732 0.06379 0.07561 0.18217 0.957 0.046 1236.175 0.01687
0.01599 -0.03737 0.06389 0.07572 0.18328 0.960 0.046 1236.205 0.01689
0.01601 -0.03743 0.06398 0.07583 0.18438 0.942 0.045 1236.235 0.01692
0.01604 -0.03748 0.06407 0.07595 0.18549 0.855 0.043 1236.265 0.01694
0.01606 -0.03754 0.06417 0.07606 0.18660 0.944 0.045 1236.295 0.01697
0.01609 -0.03759 0.06426 0.07617 0.18771 0.974 0.046 1236.325 0.01699
0.01611 -0.03765 0.06436 0.07628 0.18881 0.956 0.046 1236.355 0.01701
0.01613 -0.03770 0.06445 0.07639 0.18992 0.950 0.046 1236.384 0.01704
0.01616 -0.03776 0.06455 0.07650 0.19103 0.956 0.046 1236.414 0.01706
0.01618 -0.03781 0.06464 0.07661 0.19214 0.920 0.045 1236.444 0.01709
0.01620 -0.03787 0.06473 0.07673 0.19324 0.976 0.046 1236.474 0.01711
0.01623 -0.03792 0.06483 0.07684 0.19435 0.993 0.046 1236.504 0.01714
0.01625 -0.03798 0.06492 0.07695 0.19546 0.905 0.044 1236.534 0.01716
0.01627 -0.03803 0.06502 0.07706 0.19657 0.863 0.043 1236.564 0.01719
0.01630 -0.03809 0.06511 0.07717 0.19768 0.959 0.047 1236.594 0.01721
0.01632 -0.03814 0.06520 0.07728 0.19878 1.000 0.048 1236.623 0.01724
0.01634 -0.03820 0.06530 0.07740 0.19989 0.954 0.048 1236.653 0.01726
0.01637 -0.03825 0.06539 0.07751 0.20100 1.035 0.050 1236.683 0.01729
0.01639 -0.03831 0.06549 0.07762 0.20211 0.895 0.047 1236.713 0.01731
0.01642 -0.03836 0.06558 0.07773 0.20322 0.894 0.047 1236.743 0.01733
0.01644 -0.03842 0.06568 0.07784 0.20432 0.894 0.047 1236.773 0.01736
0.01646 -0.03847 0.06577 0.07795 0.20543 0.995 0.049 1236.803 0.01738
0.01649 -0.03853 0.06586 0.07807 0.20654 0.885 0.046 1236.833 0.01741
0.01651 -0.03858 0.06596 0.07818 0.20765 0.933 0.048 1236.862 0.01743
0.01653 -0.03864 0.06605 0.07829 0.20876 0.845 0.045 1236.892 0.01746
0.01656 -0.03869 0.06615 0.07840 0.20987 0.788 0.044 1236.922 0.01748
0.01658 -0.03875 0.06624 0.07851 0.21097 0.807 0.044 1236.952 0.01751
0.01660 -0.03880 0.06633 0.07862 0.21208 0.862 0.046 1236.982 0.01753
0.01663 -0.03886 0.06643 0.07874 0.21319 0.871 0.046 1237.012 0.01756
0.01665 -0.03891 0.06652 0.07885 0.21430 0.894 0.047 1237.042 0.01758
0.01667 -0.03897 0.06662 0.07896 0.21541 0.920 0.047 1237.072 0.01760
0.01670 -0.03902 0.06671 0.07907 0.21652 0.895 0.047 1237.101 0.01763
0.01672 -0.03908 0.06681 0.07918 0.21762 0.933 0.048 1237.131 0.01765
0.01675 -0.03914 0.06690 0.07929 0.21873 0.911 0.047 1237.161 0.01768
0.01677 -0.03919 0.06699 0.07941 0.21984 0.896 0.047 1237.191 0.01770
0.01679 -0.03925 0.06709 0.07952 0.22095 0.900 0.047 1237.221 0.01773
0.01682 -0.03930 0.06718 0.07963 0.22206 0.868 0.046 1237.251 0.01775
0.01684 -0.03936 0.06728 0.07974 0.22317 0.896 0.046 1237.281 0.01778
0.01686 -0.03941 0.06737 0.07985 0.22428 0.946 0.048 1237.311 0.01780
0.01689 -0.03947 0.06747 0.07996 0.22539 0.923 0.047 1237.341 0.01783
0.01691 -0.03952 0.06756 0.08008 0.22650 0.973 0.048 1237.370 0.01785
0.01693 -0.03958 0.06765 0.08019 0.22760 0.938 0.047 1237.400 0.01788
0.01696 -0.03963 0.06775 0.08030 0.22871 1.023 0.050 1237.430 0.01790
0.01698 -0.03969 0.06784 0.08041 0.22982 0.910 0.047 1237.460 0.01792
0.01701 -0.03974 0.06794 0.08052 0.23093 0.821 0.044 1237.490 0.01795
0.01703 -0.03980 0.06803 0.08064 0.23204 0.942 0.047 1237.520 0.01797
0.01705 -0.03985 0.06813 0.08075 0.23315 0.952 0.047 1237.550 0.01800
0.01708 -0.03991 0.06822 0.08086 0.23426 1.087 0.049 1237.580 0.01802
0.01710 -0.03996 0.06831 0.08097 0.23537 0.866 0.044 1237.609 0.01805
0.01712 -0.04002 0.06841 0.08108 0.23648 0.872 0.044 1237.639 0.01807
0.01715 -0.04007 0.06850 0.08119 0.23759 1.029 0.048 1237.669 0.01810
0.01717 -0.04013 0.06860 0.08131 0.23870 0.839 0.043 1237.699 0.01812
0.01719 -0.04018 0.06869 0.08142 0.23981 0.949 0.046 1237.729 0.01815
0.01722 -0.04024 0.06879 0.08153 0.24092 0.960 0.046 1237.759 0.01817
0.01724 -0.04029 0.06888 0.08164 0.24202 0.905 0.045 1237.789 0.01819
0.01726 -0.04035 0.06897 0.08175 0.24313 0.970 0.046 1237.819 0.01822
0.01729 -0.04040 0.06907 0.08186 0.24424 0.911 0.045 1237.848 0.01824
0.01731 -0.04046 0.06916 0.08198 0.24535 0.934 0.044 1237.878 0.01827
0.01734 -0.04051 0.06926 0.08209 0.24646 0.974 0.045 1237.908 0.01829
0.01736 -0.04057 0.06935 0.08220 0.24757 0.869 0.043 1237.938 0.01832
0.01738 -0.04062 0.06945 0.08231 0.24868 0.992 0.046 1237.968 0.01834
0.01741 -0.04068 0.06954 0.08242 0.24979 0.962 0.045 1237.998 0.01837
0.01743 -0.04073 0.06963 0.08254 0.25090 1.104 0.048 1238.028 0.01839
0.01745 -0.04079 0.06973 0.08265 0.25201 0.930 0.044 1238.058 0.01842
0.01748 -0.04085 0.06982 0.08276 0.25312 0.939 0.044 1238.087 0.01844
0.01750 -0.04090 0.06992 0.08287 0.25423 0.920 0.044 1238.117 0.01847
0.01752 -0.04096 0.07001 0.08298 0.25534 0.927 0.044 1238.147 0.01849
0.01755 -0.04101 0.07011 0.08309 0.25645 0.990 0.045 1238.177 0.01851
0.01757 -0.04107 0.07020 0.08321 0.25756 0.933 0.044 1238.207 0.01854
0.01760 -0.04112 0.07029 0.08332 0.25867 0.900 0.043 1238.237 0.01856
0.01762 -0.04118 0.07039 0.08343 0.25978 0.910 0.043 1238.267 0.01859
0.01764 -0.04123 0.07048 0.08354 0.26089 0.868 0.042 1238.297 0.01861
0.01767 -0.04129 0.07058 0.08365 0.26200 0.898 0.043 1238.327 0.01864
0.01769 -0.04134 0.07067 0.08377 0.26311 0.986 0.045 1238.356 0.01866
0.01771 -0.04140 0.07077 0.08388 0.26422 0.932 0.044 1238.386 0.01869
0.01774 -0.04145 0.07086 0.08399 0.26533 0.951 0.044 1238.416 0.01871
0.01776 -0.04151 0.07096 0.08410 0.26644 0.913 0.043 1238.446 0.01874
0.01778 -0.04156 0.07105 0.08421 0.26755 0.900 0.043 1238.476 0.01876
0.01781 -0.04162 0.07114 0.08432 0.26866 0.865 0.042 1238.506 0.01878
0.01783 -0.04167 0.07124 0.08444 0.26978 0.946 0.044 1238.536 0.01881
0.01786 -0.04173 0.07133 0.08455 0.27089 0.884 0.043 1238.566 0.01883
0.01788 -0.04178 0.07143 0.08466 0.27200 0.875 0.042 1238.595 0.01886
0.01790 -0.04184 0.07152 0.08477 0.27311 0.928 0.044 1238.625 0.01888
0.01793 -0.04189 0.07162 0.08488 0.27422 0.958 0.044 1238.655 0.01891
0.01795 -0.04195 0.07171 0.08500 0.27533 0.902 0.043 1238.685 0.01893
0.01797 -0.04200 0.07181 0.08511 0.27644 0.775 0.040 1238.715 0.01896
0.01800 -0.04206 0.07190 0.08522 0.27755 0.800 0.041 1238.745 0.01898
0.01802 -0.04212 0.07199 0.08533 0.27866 0.824 0.041 1238.775 0.01901
0.01804 -0.04217 0.07209 0.08544 0.27977 0.806 0.041 1238.805 0.01903
0.01807 -0.04223 0.07218 0.08556 0.28088 0.805 0.041 1238.834 0.01905
0.01809 -0.04228 0.07228 0.08567 0.28199 0.798 0.040 1238.864 0.01908
0.01812 -0.04234 0.07237 0.08578 0.28310 0.786 0.040 1238.894 0.01910
0.01814 -0.04239 0.07247 0.08589 0.28422 0.741 0.039 1238.924 0.01913
0.01816 -0.04245 0.07256 0.08600 0.28533 0.800 0.040 1238.954 0.01915
0.01819 -0.04250 0.07266 0.08612 0.28644 0.806 0.041 1238.984 0.01918
0.01821 -0.04256 0.07275 0.08623 0.28755 0.851 0.043 1239.014 0.01920
0.01823 -0.04261 0.07284 0.08634 0.28866 0.898 0.043 1239.044 0.01923
0.01826 -0.04267 0.07294 0.08645 0.28977 0.834 0.041 1239.073 0.01925
0.01828 -0.04272 0.07303 0.08656 0.29088 0.876 0.042 1239.103 0.01928
0.01830 -0.04278 0.07313 0.08668 0.29199 0.838 0.041 1239.133 0.01930
0.01833 -0.04283 0.07322 0.08679 0.29310 0.842 0.041 1239.163 0.01933
0.01835 -0.04289 0.07332 0.08690 0.29422 0.932 0.043 1239.193 0.01935
0.01838 -0.04294 0.07341 0.08701 0.29533 0.927 0.043 1239.223 0.01937
0.01840 -0.04300 0.07351 0.08712 0.29644 0.845 0.041 1239.253 0.01940
0.01842 -0.04305 0.07360 0.08724 0.29755 0.859 0.042 1239.283 0.01942
0.01845 -0.04311 0.07369 0.08735 0.29866 0.889 0.042 1239.313 0.01945
0.01847 -0.04316 0.07379 0.08746 0.29977 0.874 0.042 1239.342 0.01947
0.01849 -0.04322 0.07388 0.08757 0.30089 0.976 0.044 1239.372 0.01950
0.01852 -0.04328 0.07398 0.08768 0.30200 1.033 0.046 1239.402 0.01952
0.01854 -0.04333 0.07407 0.08780 0.30311 0.987 0.045 1239.432 0.01955
0.01856 -0.04339 0.07417 0.08791 0.30422 0.896 0.042 1239.462 0.01957
0.01859 -0.04344 0.07426 0.08802 0.30533 0.936 0.043 1239.492 0.01960
0.01861 -0.04350 0.07436 0.08813 0.30644 0.963 0.044 1239.522 0.01962
0.01864 -0.04355 0.07445 0.08824 0.30756 0.953 0.044 1239.552 0.01964
0.01866 -0.04361 0.07454 0.08836 0.30867 0.978 0.044 1239.581 0.01967
0.01868 -0.04366 0.07464 0.08847 0.30978 0.953 0.045 1239.611 0.01969
0.01871 -0.04372 0.07473 0.08858 0.31089 0.931 0.045 1239.641 0.01972
0.01873 -0.04377 0.07483 0.08869 0.31200 0.998 0.046 1239.671 0.01974
0.01875 -0.04383 0.07492 0.08880 0.31312 0.997 0.046 1239.701 0.01977
