x y z dist_scaled dist_frac flux_norm sig_norm wavelength redshift
-0.02884 0.03586 0.03408 0.05726 0.00000 1.022 0.049 1231.247 0.01281
-0.02890 0.03593 0.03414 0.05737 0.00110 0.991 0.049 1231.277 0.01284
-0.02896 0.03600 0.03421 0.05748 0.00220 1.033 0.050 1231.306 0.01286
-0.02901 0.03607 0.03428 0.05760 0.00330 1.053 0.050 1231.336 0.01289
-0.02907 0.03614 0.03434 0.05771 0.00440 0.955 0.048 1231.366 0.01291
-0.02912 0.03620 0.03441 0.05782 0.00550 1.079 0.051 1231.396 0.01294
-0.02918 0.03627 0.03447 0.05793 0.00661 1.005 0.049 1231.426 0.01296
-0.02923 0.03634 0.03454 0.05804 0.00771 1.005 0.049 1231.456 0.01299
-0.02929 0.03641 0.03461 0.05815 0.00881 1.043 0.050 1231.486 0.01301
-0.02935 0.03648 0.03467 0.05826 0.00991 0.882 0.046 1231.516 0.01303
-0.02940 0.03655 0.03474 0.05837 0.01101 1.049 0.050 1231.546 0.01306
-0.02946 0.03662 0.03480 0.05848 0.01211 0.911 0.047 1231.576 0.01308
-0.02951 0.03669 0.03487 0.05859 0.01321 0.954 0.048 1231.605 0.01311
-0.02957 0.03676 0.03494 0.05871 0.01431 1.061 0.050 1231.635 0.01313
-0.02963 0.03683 0.03500 0.05882 0.01541 0.993 0.049 1231.665 0.01316
-0.02968 0.03690 0.03507 0.05893 0.01652 1.078 0.051 1231.695 0.01318
-0.02974 0.03697 0.03513 0.05904 0.01762 0.833 0.045 1231.725 0.01321
-0.02979 0.03704 0.03520 0.05915 0.01872 0.974 0.048 1231.755 0.01323
-0.02985 0.03711 0.03527 0.05926 0.01982 1.038 0.050 1231.785 0.01326
-0.02991 0.03718 0.03533 0.05937 0.02092 0.995 0.049 1231.815 0.01328
-0.02996 0.03725 0.03540 0.05948 0.02202 0.969 0.048 1231.845 0.01331
-0.03002 0.03732 0.03547 0.05959 0.02312 1.020 0.049 1231.874 0.01333
-0.03007 0.03739 0.03553 0.05970 0.02423 0.986 0.049 1231.904 0.01335
-0.03013 0.03746 0.03560 0.05982 0.02533 1.020 0.049 1231.934 0.01338
-0.03019 0.03753 0.03566 0.05993 0.02643 1.078 0.051 1231.964 0.01340
-0.03024 0.03760 0.03573 0.06004 0.02753 1.014 0.049 1231.994 0.01343
-0.03030 0.03766 0.03580 0.06015 0.02863 0.971 0.048 1232.024 0.01345
-0.03035 0.03773 0.03586 0.06026 0.02973 0.915 0.047 1232.054 0.01348
-0.03041 0.03780 0.03593 0.06037 0.03084 1.122 0.052 1232.084 0.01350
-0.03046 0.03787 0.03599 0.06048 0.03194 0.982 0.048 1232.114 0.01353
-0.03052 0.03794 0.03606 0.06059 0.03304 1.038 0.050 1232.143 0.01355
-0.03058 0.03801 0.03613 0.06070 0.03414 1.030 0.050 1232.173 0.01358
-0.03063 0.03808 0.03619 0.06081 0.03524 1.025 0.049 1232.203 0.01360
-0.03069 0.03815 0.03626 0.06093 0.03635 0.820 0.044 1232.233 0.01362
-0.03074 0.03822 0.03632 0.06104 0.03745 0.985 0.049 1232.263 0.01365
-0.03080 0.03829 0.03639 0.06115 0.03855 0.990 0.049 1232.293 0.01367
-0.03086 0.03836 0.03646 0.06126 0.03965 0.921 0.047 1232.323 0.01370
-0.03091 0.03843 0.03652 0.06137 0.04075 0.990 0.049 1232.353 0.01372
-0.03097 0.03850 0.03659 0.06148 0.04186 0.994 0.049 1232.383 0.01375
-0.03102 0.03857 0.03665 0.06159 0.04296 0.972 0.048 1232.413 0.01377
-0.03108 0.03864 0.03672 0.06170 0.04406 0.982 0.048 1232.442 0.01380
-0.03114 0.03871 0.03679 0.06181 0.04516 1.068 0.051 1232.472 0.01382
-0.03119 0.03878 0.03685 0.06193 0.04627 1.018 0.049 1232.502 0.01385
-0.03125 0.03885 0.03692 0.06204 0.04737 0.971 0.048 1232.532 0.01387
-0.03130 0.03892 0.03699 0.06215 0.04847 0.893 0.046 1232.562 0.01390
-0.03136 0.03899 0.03705 0.06226 0.04957 0.944 0.048 1232.592 0.01392
-0.03142 0.03906 0.03712 0.06237 0.05068 0.987 0.049 1232.622 0.01394
-0.03147 0.03913 0.03718 0.06248 0.05178 0.999 0.049 1232.652 0.01397
-0.03153 0.03920 0.03725 0.06259 0.05288 0.964 0.048 1232.682 0.01399
-0.03158 0.03926 0.03732 0.06270 0.05398 1.000 0.049 1232.711 0.01402
-0.03164 0.03933 0.03738 0.06281 0.05509 1.019 0.049 1232.741 0.01404
-0.03170 0.03940 0.03745 0.06293 0.05619 0.990 0.049 1232.771 0.01407
-0.03175 0.03947 0.03751 0.06304 0.05729 0.990 0.049 1232.801 0.01409
-0.03181 0.03954 0.03758 0.06315 0.05840 1.004 0.049 1232.831 0.01412
-0.03186 0.03961 0.03765 0.06326 0.05950 0.923 0.047 1232.861 0.01414
-0.03192 0.03968 0.03771 0.06337 0.06060 0.928 0.047 1232.891 0.01417
-0.03198 0.03975 0.03778 0.06348 0.06170 0.950 0.048 1232.921 0.01419
-0.03203 0.03982 0.03785 0.06359 0.06281 1.072 0.051 1232.951 0.01421
-0.03209 0.03989 0.03791 0.06370 0.06391 0.995 0.049 1232.980 0.01424
-0.03214 0.03996 0.03798 0.06382 0.06501 1.079 0.051 1233.010 0.01426
-0.03220 0.04003 0.03804 0.06393 0.06612 1.012 0.049 1233.040 0.01429
-0.03226 0.04010 0.03811 0.06404 0.06722 1.003 0.049 1233.070 0.01431
-0.03231 0.04017 0.03818 0.06415 0.06832 1.008 0.049 1233.100 0.01434
-0.03237 0.04024 0.03824 0.06426 0.06943 0.906 0.047 1233.130 0.01436
-0.03242 0.04031 0.03831 0.06437 0.07053 0.911 0.047 1233.160 0.01439
-0.03248 0.04038 0.03837 0.06448 0.07163 0.935 0.047 1233.190 0.01441
-0.03254 0.04045 0.03844 0.06459 0.07274 1.025 0.050 1233.220 0.01444
-0.03259 0.04052 0.03851 0.06471 0.07384 0.907 0.047 1233.249 0.01446
-0.03265 0.04059 0.03857 0.06482 0.07494 0.900 0.046 1233.279 0.01449
-0.03270 0.04066 0.03864 0.06493 0.07605 0.989 0.049 1233.309 0.01451
-0.03276 0.04073 0.03871 0.06504 0.07715 0.996 0.049 1233.339 0.01453
-0.03282 0.04080 0.03877 0.06515 0.07825 1.024 0.050 1233.369 0.01456
-0.03287 0.04087 0.03884 0.06526 0.07936 0.990 0.049 1233.399 0.01458
-0.03293 0.04094 0.03890 0.06537 0.08046 1.028 0.050 1233.429 0.01461
-0.03298 0.04101 0.03897 0.06548 0.08156 0.908 0.047 1233.459 0.01463
-0.03304 0.04108 0.03904 0.06560 0.08267 0.888 0.046 1233.489 0.01466
-0.03310 0.04114 0.03910 0.06571 0.08377 1.004 0.049 1233.519 0.01468
-0.03315 0.04121 0.03917 0.06582 0.08488 0.980 0.048 1233.548 0.01471
-0.03321 0.04128 0.03924 0.06593 0.08598 0.979 0.048 1233.578 0.01473
-0.03326 0.04135 0.03930 0.06604 0.08708 1.012 0.049 1233.608 0.01476
-0.03332 0.04142 0.03937 0.06615 0.08819 0.927 0.047 1233.638 0.01478
-0.03338 0.04149 0.03943 0.06626 0.08929 0.942 0.048 1233.668 0.01480
-0.03343 0.04156 0.03950 0.06637 0.09040 0.951 0.048 1233.698 0.01483
-0.03349 0.04163 0.03957 0.06649 0.09150 0.985 0.049 1233.728 0.01485
-0.03354 0.04170 0.03963 0.06660 0.09260 1.002 0.049 1233.758 0.01488
-0.03360 0.04177 0.03970 0.06671 0.09371 0.976 0.048 1233.788 0.01490
-0.03366 0.04184 0.03977 0.06682 0.09481 1.058 0.050 1233.817 0.01493
-0.03371 0.04191 0.03983 0.06693 0.09592 0.988 0.049 1233.847 0.01495
-0.03377 0.04198 0.03990 0.06704 0.09702 0.950 0.048 1233.877 0.01498
-0.03383 0.04205 0.03996 0.06715 0.09812 1.036 0.050 1233.907 0.01500
-0.03388 0.04212 0.04003 0.06726 0.09923 1.079 0.051 1233.937 0.01503
-0.03394 0.04219 0.04010 0.06738 0.10033 0.983 0.049 1233.967 0.01505
-0.03399 0.04226 0.04016 0.06749 0.10144 1.015 0.049 1233.997 0.01508
-0.03405 0.04233 0.04023 0.06760 0.10254 1.018 0.049 1234.027 0.01510
-0.03411 0.04240 0.04030 0.06771 0.10365 0.969 0.048 1234.057 0.01512
-0.03416 0.04247 0.04036 0.06782 0.10475 1.032 0.050 1234.086 0.01515
-0.03422 0.04254 0.04043 0.06793 0.10586 1.058 0.050 1234.116 0.01517
-0.03427 0.04261 0.04049 0.06804 0.10696 0.955 0.048 1234.146 0.01520
-0.03433 0.04268 0.04056 0.06815 0.10806 0.852 0.045 1234.176 0.01522
-0.03439 0.04275 0.04063 0.06827 0.10917 0.890 0.046 1234.206 0.01525
-0.03444 0.04282 0.04069 0.06838 0.11027 0.895 0.046 1234.236 0.01527
-0.03450 0.04289 0.04076 0.06849 0.11138 0.943 0.048 1234.266 0.01530
-0.03455 0.04296 0.04083 0.06860 0.11248 0.934 0.047 1234.296 0.01532
-0.03461 0.04303 0.04089 0.06871 0.11359 1.062 0.051 1234.326 0.01535
-0.03467 0.04310 0.04096 0.06882 0.11469 0.929 0.047 1234.356 0.01537
-0.03472 0.04317 0.04102 0.06893 0.11580 0.952 0.048 1234.385 0.01540
-0.03478 0.04324 0.04109 0.06905 0.11690 1.135 0.052 1234.415 0.01542
-0.03483 0.04331 0.04116 0.06916 0.11801 1.102 0.051 1234.445 0.01544
-0.03489 0.04338 0.04122 0.06927 0.11911 1.025 0.050 1234.475 0.01547
-0.03495 0.04345 0.04129 0.06938 0.12022 0.985 0.049 1234.505 0.01549
-0.03500 0.04352 0.04136 0.06949 0.12132 0.985 0.049 1234.535 0.01552
-0.03506 0.04358 0.04142 0.06960 0.12243 0.991 0.049 1234.565 0.01554
-0.03512 0.04365 0.04149 0.06971 0.12353 0.959 0.048 1234.595 0.01557
-0.03517 0.04372 0.04155 0.06983 0.12464 0.907 0.047 1234.625 0.01559
-0.03523 0.04379 0.04162 0.06994 0.12574 1.012 0.049 1234.654 0.01562
-0.03528 0.04386 0.04169 0.07005 0.12685 1.021 0.050 1234.684 0.01564
-0.03534 0.04393 0.04175 0.07016 0.12796 1.041 0.050 1234.714 0.01567
-0.03540 0.04400 0.04182 0.07027 0.12906 0.994 0.049 1234.744 0.01569
-0.03545 0.04407 0.04189 0.07038 0.13017 0.980 0.049 1234.774 0.01571
-0.03551 0.04414 0.04195 0.07049 0.13127 0.909 0.047 1234.804 0.01574
-0.03556 0.04421 0.04202 0.07061 0.13238 0.972 0.048 1234.834 0.01576
-0.03562 0.04428 0.04209 0.07072 0.13348 0.901 0.047 1234.864 0.01579
-0.03568 0.04435 0.04215 0.07083 0.13459 0.965 0.048 1234.894 0.01581
-0.03573 0.04442 0.04222 0.07094 0.13569 0.969 0.048 1234.923 0.01584
-0.03579 0.04449 0.04228 0.07105 0.13680 0.936 0.048 1234.953 0.01586
-0.03584 0.04456 0.04235 0.07116 0.13791 1.006 0.049 1234.983 0.01589
-0.03590 0.04463 0.04242 0.07127 0.13901 1.067 0.051 1235.013 0.01591
-0.03596 0.04470 0.04248 0.07139 0.14012 0.965 0.048 1235.043 0.01594
-0.03601 0.04477 0.04255 0.07150 0.14122 0.898 0.047 1235.073 0.01596
-0.03607 0.04484 0.04262 0.07161 0.14233 0.992 0.049 1235.103 0.01599
-0.03613 0.04491 0.04268 0.07172 0.14343 0.968 0.048 1235.133 0.01601
-0.03618 0.04498 0.04275 0.07183 0.14454 1.089 0.051 1235.163 0.01603
-0.03624 0.04505 0.04281 0.07194 0.14565 0.995 0.049 1235.192 0.01606
-0.03629 0.04512 0.04288 0.07205 0.14675 0.949 0.048 1235.222 0.01608
-0.03635 0.04519 0.04295 0.07217 0.14786 0.925 0.047 1235.252 0.01611
-0.03641 0.04526 0.04301 0.07228 0.14897 0.966 0.048 1235.282 0.01613
-0.03646 0.04533 0.04308 0.07239 0.15007 0.988 0.049 1235.312 0.01616
-0.03652 0.04540 0.04315 0.07250 0.15118 0.952 0.048 1235.342 0.01618
-0.03657 0.04547 0.04321 0.07261 0.15228 1.034 0.050 1235.372 0.01621
-0.03663 0.04554 0.04328 0.07272 0.15339 1.073 0.051 1235.402 0.01623
-0.03669 0.04561 0.04335 0.07284 0.15450 0.925 0.047 1235.432 0.01626
-0.03674 0.04568 0.04341 0.07295 0.15560 1.051 0.050 1235.462 0.01628
-0.03680 0.04575 0.04348 0.07306 0.15671 0.990 0.049 1235.491 0.01630
-0.03686 0.04582 0.04354 0.07317 0.15782 0.943 0.048 1235.521 0.01633
-0.03691 0.04589 0.04361 0.07328 0.15892 0.930 0.047 1235.551 0.01635
-0.03697 0.04596 0.04368 0.07339 0.16003 0.964 0.048 1235.581 0.01638
-0.03702 0.04603 0.04374 0.07350 0.16114 0.931 0.047 1235.611 0.01640
-0.03708 0.04610 0.04381 0.07362 0.16224 0.858 0.046 1235.641 0.01643
-0.03714 0.04617 0.04388 0.07373 0.16335 0.953 0.048 1235.671 0.01645
-0.03719 0.04624 0.04394 0.07384 0.16446 1.043 0.050 1235.701 0.01648
-0.03725 0.04631 0.04401 0.07395 0.16556 1.007 0.049 1235.731 0.01650
-0.03731 0.04638 0.04408 0.07406 0.16667 1.043 0.050 1235.760 0.01653
-0.03736 0.04645 0.04414 0.07417 0.16778 1.012 0.049 1235.790 0.01655
-0.03742 0.04652 0.04421 0.07429 0.16888 0.990 0.049 1235.820 0.01658
-0.03747 0.04659 0.04427 0.07440 0.16999 0.937 0.048 1235.850 0.01660
-0.03753 0.04666 0.04434 0.07451 0.17110 1.007 0.049 1235.880 0.01662
-0.03759 0.04673 0.04441 0.07462 0.17220 1.005 0.049 1235.910 0.01665
-0.03764 0.04680 0.04447 0.07473 0.17331 1.005 0.049 1235.940 0.01667
-0.03770 0.04687 0.04454 0.07484 0.17442 0.981 0.049 1235.970 0.01670
-0.03775 0.04694 0.04461 0.07495 0.17552 0.933 0.048 1236.000 0.01672
-0.03781 0.04701 0.04467 0.07507 0.17663 0.998 0.049 1236.029 0.01675
-0.03787 0.04708 0.04474 0.07518 0.17774 0.935 0.048 1236.059 0.01677
-0.03792 0.04715 0.04481 0.07529 0.17885 1.003 0.049 1236.089 0.01680
-0.03798 0.04722 0.04487 0.07540 0.17995 0.875 0.046 1236.119 0.01682
-0.03804 0.04729 0.04494 0.07551 0.18106 1.067 0.051 1236.149 0.01685
-0.03809 0.04736 0.04501 0.07562 0.18217 0.981 0.049 1236.179 0.01687
-0.03815 0.04743 0.04507 0.07574 0.18328 1.077 0.051 1236.209 0.01690
-0.03820 0.04750 0.04514 0.07585 0.18438 0.975 0.049 1236.239 0.01692
-0.03826 0.04757 0.04520 0.07596 0.18549 0.912 0.047 1236.269 0.01694
-0.03832 0.04764 0.04527 0.07607 0.18660 1.072 0.051 1236.299 0.01697
-0.03837 0.04770 0.04534 0.07618 0.18771 1.012 0.050 1236.328 0.01699
-0.03843 0.04777 0.04540 0.07629 0.18881 0.983 0.049 1236.358 0.01702
-0.03849 0.04784 0.04547 0.07641 0.18992 1.005 0.049 1236.388 0.01704
-0.03854 0.04791 0.04554 0.07652 0.19103 0.944 0.048 1236.418 0.01707
-0.03860 0.04798 0.04560 0.07663 0.19214 1.025 0.050 1236.448 0.01709
-0.03865 0.04805 0.04567 0.07674 0.19324 0.930 0.047 1236.478 0.01712
-0.03871 0.04812 0.04574 0.07685 0.19435 1.041 0.050 1236.508 0.01714
-0.03877 0.04819 0.04580 0.07696 0.19546 1.053 0.051 1236.538 0.01717
-0.03882 0.04826 0.04587 0.07708 0.19657 0.921 0.047 1236.568 0.01719
-0.03888 0.04833 0.04594 0.07719 0.19767 1.057 0.051 1236.597 0.01721
-0.03894 0.04840 0.04600 0.07730 0.19878 1.072 0.051 1236.627 0.01724
-0.03899 0.04847 0.04607 0.07741 0.19989 0.885 0.046 1236.657 0.01726
-0.03905 0.04854 0.04613 0.07752 0.20100 0.957 0.048 1236.687 0.01729
-0.03910 0.04861 0.04620 0.07763 0.20211 1.030 0.050 1236.717 0.01731
-0.03916 0.04868 0.04627 0.07775 0.20321 0.980 0.049 1236.747 0.01734
-0.03922 0.04875 0.04633 0.07786 0.20432 0.968 0.048 1236.777 0.01736
-0.03927 0.04882 0.04640 0.07797 0.20543 0.948 0.048 1236.807 0.01739
-0.03933 0.04889 0.04647 0.07808 0.20654 0.904 0.047 1236.837 0.01741
-0.03939 0.04896 0.04653 0.07819 0.20765 1.021 0.050 1236.866 0.01744
-0.03944 0.04903 0.04660 0.07830 0.20876 1.022 0.050 1236.896 0.01746
-0.03950 0.04910 0.04667 0.07842 0.20986 0.995 0.049 1236.926 0.01749
-0.03955 0.04917 0.04673 0.07853 0.21097 0.934 0.048 1236.956 0.01751
-0.03961 0.04924 0.04680 0.07864 0.21208 0.949 0.048 1236.986 0.01753
-0.03967 0.04931 0.04687 0.07875 0.21319 0.934 0.048 1237.016 0.01756
-0.03972 0.04938 0.04693 0.07886 0.21430 0.907 0.047 1237.046 0.01758
-0.03978 0.04945 0.04700 0.07897 0.21541 0.901 0.047 1237.076 0.01761
-0.03984 0.04952 0.04707 0.07909 0.21652 0.900 0.047 1237.106 0.01763
-0.03989 0.04959 0.04713 0.07920 0.21762 0.887 0.046 1237.135 0.01766
-0.03995 0.04966 0.04720 0.07931 0.21873 0.837 0.045 1237.165 0.01768
-0.04000 0.04973 0.04727 0.07942 0.21984 0.909 0.047 1237.195 0.01771
-0.04006 0.04980 0.04733 0.07953 0.22095 0.944 0.048 1237.225 0.01773
-0.04012 0.04987 0.04740 0.07965 0.22206 0.915 0.047 1237.255 0.01776
-0.04017 0.04994 0.04746 0.07976 0.22317 1.018 0.050 1237.285 0.01778
-0.04023 0.05001 0.04753 0.07987 0.22428 0.955 0.048 1237.315 0.01780
-0.04029 0.05008 0.04760 0.07998 0.22539 0.895 0.047 1237.345 0.01783
-0.04034 0.05015 0.04766 0.08009 0.22649 0.954 0.048 1237.375 0.01785
-0.04040 0.05022 0.04773 0.08020 0.22760 0.944 0.048 1237.405 0.01788
-0.04046 0.05029 0.04780 0.08032 0.22871 1.029 0.050 1237.434 0.01790
-0.04051 0.05036 0.04786 0.08043 0.22982 1.005 0.049 1237.464 0.01793
-0.04057 0.05043 0.04793 0.08054 0.23093 0.972 0.049 1237.494 0.01795
-0.04062 0.05050 0.04800 0.08065 0.23204 0.942 0.048 1237.524 0.01798
-0.04068 0.05057 0.04806 0.08076 0.23315 0.906 0.047 1237.554 0.01800
-0.04074 0.05064 0.04813 0.08087 0.23426 0.955 0.048 1237.584 0.01803
-0.04079 0.05071 0.04820 0.08099 0.23537 0.974 0.049 1237.614 0.01805
-0.04085 0.05078 0.04826 0.08110 0.23648 0.874 0.046 1237.644 0.01808
-0.04091 0.05085 0.04833 0.08121 0.23759 0.969 0.049 1237.674 0.01810
-0.04096 0.05092 0.04840 0.08132 0.23870 0.969 0.049 1237.703 0.01812
-0.04102 0.05099 0.04846 0.08143 0.23980 0.990 0.049 1237.733 0.01815
-0.04107 0.05106 0.04853 0.08155 0.24091 0.933 0.048 1237.763 0.01817
-0.04113 0.05113 0.04860 0.08166 0.24202 1.030 0.050 1237.793 0.01820
-0.04119 0.05120 0.04866 0.08177 0.24313 0.947 0.048 1237.823 0.01822
-0.04124 0.05127 0.04873 0.08188 0.24424 0.974 0.049 1237.853 0.01825
-0.04130 0.05134 0.04880 0.08199 0.24535 0.992 0.049 1237.883 0.01827
-0.04136 0.05141 0.04886 0.08210 0.24646 0.977 0.049 1237.913 0.01830
-0.04141 0.05148 0.04893 0.08222 0.24757 0.950 0.048 1237.943 0.01832
-0.04147 0.05155 0.04900 0.08233 0.24868 0.907 0.047 1237.972 0.01835
-0.04153 0.05162 0.04906 0.08244 0.24979 0.982 0.049 1238.002 0.01837
-0.04158 0.05169 0.04913 0.08255 0.25090 0.917 0.047 1238.032 0.01840
-0.04164 0.05176 0.04919 0.08266 0.25201 0.954 0.048 1238.062 0.01842
-0.04169 0.05183 0.04926 0.08278 0.25312 1.178 0.054 1238.092 0.01844
-0.04175 0.05190 0.04933 0.08289 0.25423 0.871 0.046 1238.122 0.01847
-0.04181 0.05197 0.04939 0.08300 0.25534 0.905 0.047 1238.152 0.01849
-0.04186 0.05204 0.04946 0.08311 0.25645 0.922 0.047 1238.182 0.01852
-0.04192 0.05211 0.04953 0.08322 0.25756 0.867 0.046 1238.212 0.01854
-0.04198 0.05218 0.04959 0.08334 0.25867 0.878 0.046 1238.242 0.01857
-0.04203 0.05225 0.04966 0.08345 0.25978 0.993 0.049 1238.271 0.01859
-0.04209 0.05232 0.04973 0.08356 0.26089 0.967 0.049 1238.301 0.01862
-0.04215 0.05239 0.04979 0.08367 0.26200 1.109 0.052 1238.331 0.01864
-0.04220 0.05246 0.04986 0.08378 0.26311 0.996 0.049 1238.361 0.01867
-0.04226 0.05253 0.04993 0.08390 0.26422 1.043 0.050 1238.391 0.01869
-0.04231 0.05260 0.04999 0.08401 0.26533 0.982 0.049 1238.421 0.01871
-0.04237 0.05267 0.05006 0.08412 0.26644 0.958 0.048 1238.451 0.01874
-0.04243 0.05274 0.05013 0.08423 0.26755 0.923 0.047 1238.481 0.01876
-0.04248 0.05281 0.05019 0.08434 0.26866 0.858 0.046 1238.511 0.01879
-0.04254 0.05288 0.05026 0.08445 0.26977 0.938 0.048 1238.540 0.01881
-0.04260 0.05296 0.05033 0.08457 0.27088 0.911 0.047 1238.570 0.01884
-0.04265 0.05303 0.05039 0.08468 0.27199 0.956 0.048 1238.600 0.01886
-0.04271 0.05310 0.05046 0.08479 0.27311 0.938 0.048 1238.630 0.01889
-0.04277 0.05317 0.05053 0.08490 0.27422 0.856 0.046 1238.660 0.01891
-0.04282 0.05324 0.05059 0.08501 0.27533 0.824 0.045 1238.690 0.01894
-0.04288 0.05331 0.05066 0.08513 0.27644 0.900 0.047 1238.720 0.01896
-0.04293 0.05338 0.05073 0.08524 0.27755 0.959 0.048 1238.750 0.01899
-0.04299 0.05345 0.05079 0.08535 0.27866 0.929 0.048 1238.780 0.01901
-0.04305 0.05352 0.05086 0.08546 0.27977 0.930 0.048 1238.809 0.01903
-0.04310 0.05359 0.05093 0.08557 0.28088 0.861 0.046 1238.839 0.01906
-0.04316 0.05366 0.05099 0.08569 0.28199 0.971 0.049 1238.869 0.01908
-0.04322 0.05373 0.05106 0.08580 0.28310 0.957 0.048 1238.899 0.01911
-0.04327 0.05380 0.05113 0.08591 0.28421 0.980 0.049 1238.929 0.01913
-0.04333 0.05387 0.05119 0.08602 0.28533 0.900 0.047 1238.959 0.01916
-0.04339 0.05394 0.05126 0.08613 0.28644 0.974 0.049 1238.989 0.01918
-0.04344 0.05401 0.05133 0.08625 0.28755 1.025 0.050 1239.019 0.01921
-0.04350 0.05408 0.05139 0.08636 0.28866 1.071 0.051 1239.049 0.01923
-0.04356 0.05415 0.05146 0.08647 0.28977 0.976 0.049 1239.078 0.01926
-0.04361 0.05422 0.05153 0.08658 0.29088 1.006 0.050 1239.108 0.01928
-0.04367 0.05429 0.05159 0.08669 0.29199 0.977 0.049 1239.138 0.01930
-0.04372 0.05436 0.05166 0.08681 0.29310 0.989 0.049 1239.168 0.01933
-0.04378 0.05443 0.05173 0.08692 0.29421 0.996 0.049 1239.198 0.01935
-0.04384 0.05450 0.05179 0.08703 0.29533 0.978 0.049 1239.228 0.01938
-0.04389 0.05457 0.05186 0.08714 0.29644 1.000 0.049 1239.258 0.01940
-0.04395 0.05464 0.05193 0.08725 0.29755 0.967 0.049 1239.288 0.01943
-0.04401 0.05471 0.05199 0.08737 0.29866 1.034 0.050 1239.318 0.01945
-0.04406 0.05478 0.05206 0.08748 0.29977 1.126 0.052 1239.348 0.01948
-0.04412 0.05485 0.05213 0.08759 0.30088 0.924 0.047 1239.377 0.01950
-0.04418 0.05492 0.05219 0.08770 0.30200 0.967 0.049 1239.407 0.01953
-0.04423 0.05499 0.05226 0.08781 0.30311 0.975 0.049 1239.437 0.01955
-0.04429 0.05506 0.05233 0.08793 0.30422 1.041 0.050 1239.467 0.01958
-0.04435 0.05513 0.05239 0.08804 0.30533 1.013 0.050 1239.497 0.01960
-0.04440 0.05520 0.05246 0.08815 0.30644 0.986 0.049 1239.527 0.01962
-0.04446 0.05527 0.05253 0.08826 0.30755 0.986 0.049 1239.557 0.01965
-0.04451 0.05534 0.05259 0.08837 0.30867 1.036 0.050 1239.587 0.01967
-0.04457 0.05541 0.05266 0.08849 0.30978 0.947 0.048 1239.617 0.01970
-0.04463 0.05548 0.05273 0.08860 0.31089 0.984 0.049 1239.646 0.01972
-0.04468 0.05555 0.05279 0.08871 0.31200 0.959 0.048 1239.676 0.01975
-0.04474 0.05562 0.05286 0.08882 0.31311 0.986 0.049 1239.706 0.01977
