x y z dist_scaled dist_frac flux_norm sig_norm wavelength redshift
0.03218 0.02440 0.04059 0.05726 0.00000 0.992 0.067 1231.245 0.01281
0.03224 0.02444 0.04067 0.05737 0.00110 1.035 0.069 1231.275 0.01284
0.03230 0.02449 0.04075 0.05748 0.00220 1.097 0.071 1231.305 0.01286
0.03236 0.02454 0.04083 0.05759 0.00330 0.858 0.063 1231.335 0.01289
0.03243 0.02459 0.04091 0.05770 0.00440 1.063 0.070 1231.365 0.01291
0.03249 0.02463 0.04099 0.05781 0.00550 1.054 0.069 1231.395 0.01293
0.03255 0.02468 0.04106 0.05792 0.00661 0.991 0.067 1231.425 0.01296
0.03261 0.02473 0.04114 0.05803 0.00771 1.186 0.074 1231.454 0.01298
0.03268 0.02477 0.04122 0.05814 0.00881 0.957 0.066 1231.484 0.01301
0.03274 0.02482 0.04130 0.05826 0.00991 1.049 0.069 1231.514 0.01303
0.03280 0.02487 0.04138 0.05837 0.01101 1.081 0.070 1231.544 0.01306
0.03286 0.02492 0.04146 0.05848 0.01211 0.901 0.064 1231.574 0.01308
0.03293 0.02496 0.04154 0.05859 0.01321 0.800 0.060 1231.604 0.01311
0.03299 0.02501 0.04162 0.05870 0.01431 1.025 0.068 1231.634 0.01313
0.03305 0.02506 0.04169 0.05881 0.01541 0.835 0.066 1231.664 0.01316
0.03311 0.02511 0.04177 0.05892 0.01652 0.929 0.072 1231.693 0.01318
0.03317 0.02515 0.04185 0.05903 0.01762 0.954 0.073 1231.723 0.01321
0.03324 0.02520 0.04193 0.05914 0.01872 1.005 0.075 1231.753 0.01323
0.03330 0.02525 0.04201 0.05925 0.01982 1.033 0.076 1231.783 0.01325
0.03336 0.02529 0.04209 0.05936 0.02092 0.966 0.074 1231.813 0.01328
0.03342 0.02534 0.04217 0.05948 0.02202 0.933 0.072 1231.843 0.01330
0.03349 0.02539 0.04224 0.05959 0.02312 0.910 0.067 1231.873 0.01333
0.03355 0.02544 0.04232 0.05970 0.02423 0.882 0.064 1231.903 0.01335
0.03361 0.02548 0.04240 0.05981 0.02533 0.941 0.066 1231.932 0.01338
0.03367 0.02553 0.04248 0.05992 0.02643 0.990 0.067 1231.962 0.01340
0.03374 0.02558 0.04256 0.06003 0.02753 1.058 0.070 1231.992 0.01343
0.03380 0.02563 0.04264 0.06014 0.02863 0.952 0.066 1232.022 0.01345
0.03386 0.02567 0.04272 0.06025 0.02973 1.078 0.070 1232.052 0.01348
0.03392 0.02572 0.04280 0.06036 0.03084 0.952 0.066 1232.082 0.01350
0.03399 0.02577 0.04287 0.06047 0.03194 0.958 0.066 1232.112 0.01352
0.03405 0.02582 0.04295 0.06059 0.03304 1.049 0.069 1232.142 0.01355
0.03411 0.02586 0.04303 0.06070 0.03414 1.087 0.070 1232.171 0.01357
0.03417 0.02591 0.04311 0.06081 0.03524 1.062 0.070 1232.201 0.01360
0.03424 0.02596 0.04319 0.06092 0.03635 0.912 0.065 1232.231 0.01362
0.03430 0.02600 0.04327 0.06103 0.03745 0.876 0.063 1232.261 0.01365
0.03436 0.02605 0.04335 0.06114 0.03855 0.902 0.064 1232.291 0.01367
0.03442 0.02610 0.04343 0.06125 0.03965 1.086 0.070 1232.321 0.01370
0.03448 0.02615 0.04350 0.06136 0.04075 1.048 0.069 1232.351 0.01372
0.03455 0.02619 0.04358 0.06147 0.04186 0.954 0.066 1232.381 0.01375
0.03461 0.02624 0.04366 0.06159 0.04296 0.965 0.066 1232.411 0.01377
0.03467 0.02629 0.04374 0.06170 0.04406 0.897 0.064 1232.440 0.01380
0.03473 0.02634 0.04382 0.06181 0.04516 1.054 0.069 1232.470 0.01382
0.03480 0.02638 0.04390 0.06192 0.04627 0.930 0.065 1232.500 0.01384
0.03486 0.02643 0.04398 0.06203 0.04737 0.887 0.064 1232.530 0.01387
0.03492 0.02648 0.04406 0.06214 0.04847 0.977 0.067 1232.560 0.01389
0.03498 0.02652 0.04413 0.06225 0.04957 0.887 0.064 1232.590 0.01392
0.03505 0.02657 0.04421 0.06236 0.05068 0.968 0.066 1232.620 0.01394
0.03511 0.02662 0.04429 0.06247 0.05178 0.920 0.065 1232.650 0.01397
0.03517 0.02667 0.04437 0.06258 0.05288 1.071 0.070 1232.679 0.01399
0.03523 0.02671 0.04445 0.06270 0.05398 1.071 0.070 1232.709 0.01402
0.03530 0.02676 0.04453 0.06281 0.05509 1.138 0.072 1232.739 0.01404
0.03536 0.02681 0.04461 0.06292 0.05619 1.146 0.072 1232.769 0.01407
0.03542 0.02686 0.04469 0.06303 0.05729 0.953 0.066 1232.799 0.01409
0.03548 0.02690 0.04476 0.06314 0.05840 0.894 0.064 1232.829 0.01411
0.03555 0.02695 0.04484 0.06325 0.05950 0.985 0.067 1232.859 0.01414
0.03561 0.02700 0.04492 0.06336 0.06060 0.965 0.066 1232.889 0.01416
0.03567 0.02705 0.04500 0.06347 0.06170 1.051 0.069 1232.918 0.01419
0.03573 0.02709 0.04508 0.06358 0.06281 0.908 0.064 1232.948 0.01421
0.03580 0.02714 0.04516 0.06370 0.06391 0.982 0.067 1232.978 0.01424
0.03586 0.02719 0.04524 0.06381 0.06501 0.840 0.062 1233.008 0.01426
0.03592 0.02724 0.04532 0.06392 0.06612 0.982 0.067 1233.038 0.01429
0.03598 0.02728 0.04539 0.06403 0.06722 1.148 0.072 1233.068 0.01431
0.03605 0.02733 0.04547 0.06414 0.06832 0.992 0.067 1233.098 0.01434
0.03611 0.02738 0.04555 0.06425 0.06943 1.043 0.069 1233.128 0.01436
0.03617 0.02742 0.04563 0.06436 0.07053 0.977 0.067 1233.157 0.01439
0.03623 0.02747 0.04571 0.06447 0.07163 0.930 0.065 1233.187 0.01441
0.03630 0.02752 0.04579 0.06459 0.07274 0.983 0.067 1233.217 0.01443
0.03636 0.02757 0.04587 0.06470 0.07384 1.029 0.068 1233.247 0.01446
0.03642 0.02761 0.04595 0.06481 0.07494 0.949 0.066 1233.277 0.01448
0.03648 0.02766 0.04602 0.06492 0.07605 1.053 0.069 1233.307 0.01451
0.03655 0.02771 0.04610 0.06503 0.07715 0.907 0.064 1233.337 0.01453
0.03661 0.02776 0.04618 0.06514 0.07825 1.014 0.068 1233.367 0.01456
0.03667 0.02780 0.04626 0.06525 0.07936 1.019 0.068 1233.397 0.01458
0.03673 0.02785 0.04634 0.06536 0.08046 0.966 0.066 1233.426 0.01461
0.03680 0.02790 0.04642 0.06547 0.08156 0.971 0.066 1233.456 0.01463
0.03686 0.02795 0.04650 0.06559 0.08267 0.999 0.067 1233.486 0.01466
0.03692 0.02799 0.04658 0.06570 0.08377 1.031 0.068 1233.516 0.01468
0.03698 0.02804 0.04666 0.06581 0.08488 1.121 0.071 1233.546 0.01470
0.03705 0.02809 0.04673 0.06592 0.08598 0.999 0.067 1233.576 0.01473
0.03711 0.02814 0.04681 0.06603 0.08708 0.919 0.065 1233.606 0.01475
0.03717 0.02818 0.04689 0.06614 0.08819 1.004 0.068 1233.636 0.01478
0.03723 0.02823 0.04697 0.06625 0.08929 1.089 0.070 1233.665 0.01480
0.03730 0.02828 0.04705 0.06636 0.09040 1.013 0.068 1233.695 0.01483
0.03736 0.02832 0.04713 0.06648 0.09150 0.962 0.066 1233.725 0.01485
0.03742 0.02837 0.04721 0.06659 0.09260 1.027 0.068 1233.755 0.01488
0.03748 0.02842 0.04729 0.06670 0.09371 0.994 0.067 1233.785 0.01490
0.03755 0.02847 0.04737 0.06681 0.09481 0.960 0.066 1233.815 0.01493
0.03761 0.02851 0.04744 0.06692 0.09592 1.074 0.070 1233.845 0.01495
0.03767 0.02856 0.04752 0.06703 0.09702 0.871 0.063 1233.875 0.01497
0.03773 0.02861 0.04760 0.06714 0.09813 1.013 0.068 1233.904 0.01500
0.03780 0.02866 0.04768 0.06725 0.09923 1.106 0.071 1233.934 0.01502
0.03786 0.02870 0.04776 0.06737 0.10033 0.975 0.067 1233.964 0.01505
0.03792 0.02875 0.04784 0.06748 0.10144 1.018 0.068 1233.994 0.01507
0.03798 0.02880 0.04792 0.06759 0.10254 0.933 0.065 1234.024 0.01510
0.03805 0.02885 0.04800 0.06770 0.10365 0.974 0.067 1234.054 0.01512
0.03811 0.02889 0.04808 0.06781 0.10475 1.045 0.069 1234.084 0.01515
0.03817 0.02894 0.04815 0.06792 0.10586 1.068 0.070 1234.114 0.01517
0.03823 0.02899 0.04823 0.06803 0.10696 1.049 0.069 1234.143 0.01520
0.03830 0.02904 0.04831 0.06814 0.10807 0.972 0.066 1234.173 0.01522
0.03836 0.02908 0.04839 0.06826 0.10917 1.011 0.068 1234.203 0.01525
0.03842 0.02913 0.04847 0.06837 0.11028 1.024 0.068 1234.233 0.01527
0.03848 0.02918 0.04855 0.06848 0.11138 1.004 0.067 1234.263 0.01529
0.03855 0.02923 0.04863 0.06859 0.11248 1.008 0.068 1234.293 0.01532
0.03861 0.02927 0.04871 0.06870 0.11359 0.934 0.065 1234.323 0.01534
0.03867 0.02932 0.04879 0.06881 0.11469 0.899 0.064 1234.353 0.01537
0.03873 0.02937 0.04886 0.06892 0.11580 0.890 0.064 1234.383 0.01539
0.03880 0.02942 0.04894 0.06904 0.11690 1.017 0.068 1234.412 0.01542
0.03886 0.02946 0.04902 0.06915 0.11801 1.017 0.068 1234.442 0.01544
0.03892 0.02951 0.04910 0.06926 0.11911 0.919 0.065 1234.472 0.01547
0.03898 0.02956 0.04918 0.06937 0.12022 0.866 0.063 1234.502 0.01549
0.03905 0.02961 0.04926 0.06948 0.12132 0.917 0.064 1234.532 0.01552
0.03911 0.02965 0.04934 0.06959 0.12243 0.850 0.062 1234.562 0.01554
0.03917 0.02970 0.04942 0.06970 0.12354 0.930 0.065 1234.592 0.01556
0.03923 0.02975 0.04950 0.06981 0.12464 0.998 0.067 1234.622 0.01559
0.03930 0.02979 0.04957 0.06993 0.12575 1.124 0.071 1234.651 0.01561
0.03936 0.02984 0.04965 0.07004 0.12685 0.958 0.066 1234.681 0.01564
0.03942 0.02989 0.04973 0.07015 0.12796 1.069 0.070 1234.711 0.01566
0.03948 0.02994 0.04981 0.07026 0.12906 1.100 0.071 1234.741 0.01569
0.03955 0.02998 0.04989 0.07037 0.13017 1.024 0.068 1234.771 0.01571
0.03961 0.03003 0.04997 0.07048 0.13127 0.951 0.066 1234.801 0.01574
0.03967 0.03008 0.05005 0.07059 0.13238 0.922 0.065 1234.831 0.01576
0.03974 0.03013 0.05013 0.07071 0.13348 1.175 0.073 1234.861 0.01579
0.03980 0.03017 0.05021 0.07082 0.13459 1.076 0.070 1234.890 0.01581
0.03986 0.03022 0.05029 0.07093 0.13570 1.001 0.067 1234.920 0.01584
0.03992 0.03027 0.05036 0.07104 0.13680 1.104 0.071 1234.950 0.01586
0.03999 0.03032 0.05044 0.07115 0.13791 0.986 0.067 1234.980 0.01588
0.04005 0.03036 0.05052 0.07126 0.13901 0.845 0.062 1235.010 0.01591
0.04011 0.03041 0.05060 0.07137 0.14012 1.024 0.068 1235.040 0.01593
0.04017 0.03046 0.05068 0.07149 0.14122 1.085 0.070 1235.070 0.01596
0.04024 0.03051 0.05076 0.07160 0.14233 0.996 0.067 1235.100 0.01598
0.04030 0.03055 0.05084 0.07171 0.14344 0.940 0.065 1235.129 0.01601
0.04036 0.03060 0.05092 0.07182 0.14454 0.940 0.065 1235.159 0.01603
0.04042 0.03065 0.05100 0.07193 0.14565 1.056 0.069 1235.189 0.01606
0.04049 0.03070 0.05108 0.07204 0.14675 1.061 0.069 1235.219 0.01608
0.04055 0.03074 0.05115 0.07215 0.14786 1.018 0.068 1235.249 0.01611
0.04061 0.03079 0.05123 0.07227 0.14897 1.032 0.068 1235.279 0.01613
0.04067 0.03084 0.05131 0.07238 0.15007 0.933 0.065 1235.309 0.01615
0.04074 0.03089 0.05139 0.07249 0.15118 1.013 0.068 1235.339 0.01618
0.04080 0.03093 0.05147 0.07260 0.15228 0.985 0.067 1235.369 0.01620
0.04086 0.03098 0.05155 0.07271 0.15339 0.905 0.064 1235.398 0.01623
0.04092 0.03103 0.05163 0.07282 0.15450 1.138 0.072 1235.428 0.01625
0.04099 0.03108 0.05171 0.07293 0.15560 1.017 0.068 1235.458 0.01628
0.04105 0.03112 0.05179 0.07305 0.15671 1.054 0.069 1235.488 0.01630
0.04111 0.03117 0.05187 0.07316 0.15782 1.128 0.071 1235.518 0.01633
0.04118 0.03122 0.05194 0.07327 0.15892 1.049 0.069 1235.548 0.01635
0.04124 0.03127 0.05202 0.07338 0.16003 1.054 0.069 1235.578 0.01638
0.04130 0.03131 0.05210 0.07349 0.16114 1.067 0.069 1235.608 0.01640
0.04136 0.03136 0.05218 0.07360 0.16224 0.950 0.065 1235.637 0.01643
0.04143 0.03141 0.05226 0.07371 0.16335 1.090 0.070 1235.667 0.01645
0.04149 0.03146 0.05234 0.07383 0.16446 0.903 0.064 1235.697 0.01647
0.04155 0.03150 0.05242 0.07394 0.16556 1.005 0.067 1235.727 0.01650
0.04161 0.03155 0.05250 0.07405 0.16667 1.018 0.068 1235.757 0.01652
0.04168 0.03160 0.05258 0.07416 0.16778 0.968 0.066 1235.787 0.01655
0.04174 0.03165 0.05266 0.07427 0.16888 0.930 0.065 1235.817 0.01657
0.04180 0.03169 0.05273 0.07438 0.16999 1.148 0.072 1235.847 0.01660
0.04186 0.03174 0.05281 0.07450 0.17110 1.004 0.067 1235.876 0.01662
0.04193 0.03179 0.05289 0.07461 0.17220 0.989 0.067 1235.906 0.01665
0.04199 0.03184 0.05297 0.07472 0.17331 0.878 0.063 1235.936 0.01667
0.04205 0.03188 0.05305 0.07483 0.17442 1.013 0.068 1235.966 0.01670
0.04212 0.03193 0.05313 0.07494 0.17553 0.961 0.066 1235.996 0.01672
0.04218 0.03198 0.05321 0.07505 0.17663 0.858 0.062 1236.026 0.01674
0.04224 0.03203 0.05329 0.07516 0.17774 1.022 0.068 1236.056 0.01677
0.04230 0.03207 0.05337 0.07528 0.17885 1.062 0.069 1236.086 0.01679
0.04237 0.03212 0.05345 0.07539 0.17995 0.946 0.065 1236.115 0.01682
0.04243 0.03217 0.05353 0.07550 0.18106 1.038 0.068 1236.145 0.01684
0.04249 0.03222 0.05360 0.07561 0.18217 0.913 0.064 1236.175 0.01687
0.04255 0.03226 0.05368 0.07572 0.18328 0.970 0.066 1236.205 0.01689
0.04262 0.03231 0.05376 0.07583 0.18438 0.922 0.064 1236.235 0.01692
0.04268 0.03236 0.05384 0.07595 0.18549 0.884 0.063 1236.265 0.01694
0.04274 0.03241 0.05392 0.07606 0.18660 1.052 0.069 1236.295 0.01697
0.04281 0.03245 0.05400 0.07617 0.18771 1.154 0.072 1236.325 0.01699
0.04287 0.03250 0.05408 0.07628 0.18881 0.903 0.064 1236.355 0.01701
0.04293 0.03255 0.05416 0.07639 0.18992 1.033 0.068 1236.384 0.01704
0.04299 0.03260 0.05424 0.07650 0.19103 1.056 0.069 1236.414 0.01706
0.04306 0.03264 0.05432 0.07661 0.19214 1.009 0.067 1236.444 0.01709
0.04312 0.03269 0.05440 0.07673 0.19324 1.050 0.069 1236.474 0.01711
0.04318 0.03274 0.05448 0.07684 0.19435 0.944 0.065 1236.504 0.01714
0.04324 0.03279 0.05455 0.07695 0.19546 0.855 0.062 1236.534 0.01716
0.04331 0.03284 0.05463 0.07706 0.19657 0.961 0.066 1236.564 0.01719
0.04337 0.03288 0.05471 0.07717 0.19768 0.953 0.065 1236.594 0.01721
0.04343 0.03293 0.05479 0.07728 0.19878 0.999 0.067 1236.623 0.01724
0.04350 0.03298 0.05487 0.07740 0.19989 0.952 0.065 1236.653 0.01726
0.04356 0.03303 0.05495 0.07751 0.20100 1.017 0.068 1236.683 0.01729
0.04362 0.03307 0.05503 0.07762 0.20211 0.933 0.065 1236.713 0.01731
0.04368 0.03312 0.05511 0.07773 0.20322 1.064 0.069 1236.743 0.01733
0.04375 0.03317 0.05519 0.07784 0.20432 0.878 0.063 1236.773 0.01736
0.04381 0.03322 0.05527 0.07795 0.20543 0.829 0.061 1236.803 0.01738
0.04387 0.03326 0.05535 0.07807 0.20654 0.748 0.058 1236.833 0.01741
0.04393 0.03331 0.05542 0.07818 0.20765 0.662 0.054 1236.862 0.01743
0.04400 0.03336 0.05550 0.07829 0.20876 0.651 0.054 1236.892 0.01746
0.04406 0.03341 0.05558 0.07840 0.20987 0.831 0.061 1236.922 0.01748
0.04412 0.03345 0.05566 0.07851 0.21097 0.930 0.065 1236.952 0.01751
0.04419 0.03350 0.05574 0.07862 0.21208 0.855 0.062 1236.982 0.01753
0.04425 0.03355 0.05582 0.07874 0.21319 0.854 0.062 1237.012 0.01756
0.04431 0.03360 0.05590 0.07885 0.21430 0.860 0.062 1237.042 0.01758
0.04437 0.03364 0.05598 0.07896 0.21541 0.864 0.062 1237.072 0.01760
0.04444 0.03369 0.05606 0.07907 0.21652 0.837 0.061 1237.101 0.01763
0.04450 0.03374 0.05614 0.07918 0.21762 0.947 0.065 1237.131 0.01765
0.04456 0.03379 0.05622 0.07929 0.21873 0.899 0.063 1237.161 0.01768
0.04462 0.03383 0.05630 0.07941 0.21984 0.793 0.060 1237.191 0.01770
0.04469 0.03388 0.05637 0.07952 0.22095 0.905 0.064 1237.221 0.01773
0.04475 0.03393 0.05645 0.07963 0.22206 1.002 0.067 1237.251 0.01775
0.04481 0.03398 0.05653 0.07974 0.22317 0.992 0.067 1237.281 0.01778
0.04488 0.03402 0.05661 0.07985 0.22428 0.860 0.062 1237.311 0.01780
0.04494 0.03407 0.05669 0.07996 0.22539 0.901 0.063 1237.341 0.01783
0.04500 0.03412 0.05677 0.08008 0.22650 0.878 0.063 1237.370 0.01785
0.04506 0.03417 0.05685 0.08019 0.22760 0.887 0.063 1237.400 0.01788
0.04513 0.03422 0.05693 0.08030 0.22871 0.988 0.066 1237.430 0.01790
0.04519 0.03426 0.05701 0.08041 0.22982 0.837 0.061 1237.460 0.01792
0.04525 0.03431 0.05709 0.08052 0.23093 0.730 0.057 1237.490 0.01795
0.04532 0.03436 0.05717 0.08064 0.23204 0.592 0.051 1237.520 0.01797
0.04538 0.03441 0.05725 0.08075 0.23315 0.532 0.049 1237.550 0.01800
0.04544 0.03445 0.05733 0.08086 0.23426 0.688 0.055 1237.580 0.01802
0.04550 0.03450 0.05740 0.08097 0.23537 0.601 0.052 1237.609 0.01805
0.04557 0.03455 0.05748 0.08108 0.23648 0.886 0.063 1237.639 0.01807
0.04563 0.03460 0.05756 0.08119 0.23759 1.065 0.069 1237.669 0.01810
0.04569 0.03464 0.05764 0.08131 0.23870 0.859 0.062 1237.699 0.01812
0.04575 0.03469 0.05772 0.08142 0.23981 0.961 0.065 1237.729 0.01815
0.04582 0.03474 0.05780 0.08153 0.24092 1.011 0.067 1237.759 0.01817
0.04588 0.03479 0.05788 0.08164 0.24202 1.027 0.068 1237.789 0.01819
0.04594 0.03483 0.05796 0.08175 0.24313 0.968 0.066 1237.819 0.01822
0.04601 0.03488 0.05804 0.08186 0.24424 1.047 0.068 1237.848 0.01824
0.04607 0.03493 0.05812 0.08198 0.24535 1.164 0.072 1237.878 0.01827
0.04613 0.03498 0.05820 0.08209 0.24646 1.082 0.069 1237.908 0.01829
0.04619 0.03502 0.05828 0.08220 0.24757 0.880 0.063 1237.938 0.01832
0.04626 0.03507 0.05836 0.08231 0.24868 0.991 0.066 1237.968 0.01834
0.04632 0.03512 0.05844 0.08242 0.24979 1.048 0.068 1237.998 0.01837
0.04638 0.03517 0.05851 0.08254 0.25090 0.911 0.064 1238.028 0.01839
0.04645 0.03522 0.05859 0.08265 0.25201 0.944 0.065 1238.058 0.01842
0.04651 0.03526 0.05867 0.08276 0.25312 0.912 0.064 1238.087 0.01844
0.04657 0.03531 0.05875 0.08287 0.25423 0.949 0.065 1238.117 0.01847
0.04663 0.03536 0.05883 0.08298 0.25534 0.901 0.063 1238.147 0.01849
0.04670 0.03541 0.05891 0.08309 0.25645 0.916 0.064 1238.177 0.01851
0.04676 0.03545 0.05899 0.08321 0.25756 0.869 0.062 1238.207 0.01854
0.04682 0.03550 0.05907 0.08332 0.25867 0.898 0.063 1238.237 0.01856
0.04689 0.03555 0.05915 0.08343 0.25978 0.961 0.065 1238.267 0.01859
0.04695 0.03560 0.05923 0.08354 0.26089 1.006 0.067 1238.297 0.01861
0.04701 0.03564 0.05931 0.08365 0.26200 0.887 0.063 1238.327 0.01864
0.04707 0.03569 0.05939 0.08377 0.26311 0.933 0.064 1238.356 0.01866
0.04714 0.03574 0.05947 0.08388 0.26422 0.919 0.064 1238.386 0.01869
0.04720 0.03579 0.05955 0.08399 0.26533 0.923 0.064 1238.416 0.01871
0.04726 0.03583 0.05962 0.08410 0.26644 0.963 0.065 1238.446 0.01874
0.04733 0.03588 0.05970 0.08421 0.26755 0.972 0.066 1238.476 0.01876
0.04739 0.03593 0.05978 0.08432 0.26866 1.008 0.067 1238.506 0.01878
0.04745 0.03598 0.05986 0.08444 0.26978 0.972 0.066 1238.536 0.01881
0.04751 0.03603 0.05994 0.08455 0.27089 1.140 0.071 1238.566 0.01883
0.04758 0.03607 0.06002 0.08466 0.27200 1.090 0.070 1238.595 0.01886
0.04764 0.03612 0.06010 0.08477 0.27311 1.036 0.068 1238.625 0.01888
0.04770 0.03617 0.06018 0.08488 0.27422 0.779 0.059 1238.655 0.01891
0.04777 0.03622 0.06026 0.08500 0.27533 0.962 0.065 1238.685 0.01893
0.04783 0.03626 0.06034 0.08511 0.27644 0.979 0.066 1238.715 0.01896
0.04789 0.03631 0.06042 0.08522 0.27755 0.975 0.066 1238.745 0.01898
0.04795 0.03636 0.06050 0.08533 0.27866 0.806 0.060 1238.775 0.01901
0.04802 0.03641 0.06058 0.08544 0.27977 0.742 0.057 1238.805 0.01903
0.04808 0.03645 0.06066 0.08556 0.28088 0.660 0.054 1238.834 0.01905
0.04814 0.03650 0.06074 0.08567 0.28199 0.636 0.053 1238.864 0.01908
0.04821 0.03655 0.06081 0.08578 0.28310 0.622 0.053 1238.894 0.01910
0.04827 0.03660 0.06089 0.08589 0.28422 0.845 0.061 1238.924 0.01913
0.04833 0.03665 0.06097 0.08600 0.28533 0.945 0.065 1238.954 0.01915
0.04840 0.03669 0.06105 0.08612 0.28644 0.881 0.062 1238.984 0.01918
0.04846 0.03674 0.06113 0.08623 0.28755 0.835 0.061 1239.014 0.01920
0.04852 0.03679 0.06121 0.08634 0.28866 0.894 0.063 1239.044 0.01923
0.04858 0.03684 0.06129 0.08645 0.28977 0.925 0.064 1239.073 0.01925
0.04865 0.03688 0.06137 0.08656 0.29088 0.916 0.064 1239.103 0.01928
0.04871 0.03693 0.06145 0.08668 0.29199 0.947 0.065 1239.133 0.01930
0.04877 0.03698 0.06153 0.08679 0.29310 0.898 0.063 1239.163 0.01933
0.04884 0.03703 0.06161 0.08690 0.29422 1.024 0.067 1239.193 0.01935
0.04890 0.03707 0.06169 0.08701 0.29533 0.875 0.062 1239.223 0.01937
0.04896 0.03712 0.06177 0.08712 0.29644 0.975 0.066 1239.253 0.01940
0.04902 0.03717 0.06185 0.08724 0.29755 0.820 0.060 1239.283 0.01942
0.04909 0.03722 0.06193 0.08735 0.29866 0.838 0.061 1239.313 0.01945
0.04915 0.03727 0.06201 0.08746 0.29977 0.815 0.060 1239.342 0.01947
0.04921 0.03731 0.06208 0.08757 0.30089 0.752 0.058 1239.372 0.01950
0.04928 0.03736 0.06216 0.08768 0.30200 0.901 0.063 1239.402 0.01952
0.04934 0.03741 0.06224 0.08780 0.30311 0.860 0.062 1239.432 0.01955
0.04940 0.03746 0.06232 0.08791 0.30422 0.924 0.064 1239.462 0.01957
0.04946 0.03750 0.06240 0.08802 0.30533 0.928 0.064 1239.492 0.01960
0.04953 0.03755 0.06248 0.08813 0.30644 0.937 0.064 1239.522 0.01962
0.04959 0.03760 0.06256 0.08824 0.30756 0.901 0.063 1239.552 0.01964
0.04965 0.03765 0.06264 0.08836 0.30867 0.987 0.066 1239.581 0.01967
0.04972 0.03770 0.06272 0.08847 0.30978 1.018 0.067 1239.611 0.01969
0.04978 0.03774 0.06280 0.08858 0.31089 0.908 0.063 1239.641 0.01972
0.04984 0.03779 0.06288 0.08869 0.31200 0.944 0.065 1239.671 0.01974
0.04991 0.03784 0.06296 0.08880 0.31312 1.008 0.067 1239.701 0.01977
0.04997 0.03789 0.06304 0.08892 0.31423 0.886 0.063 1239.731 0.01979
0.05003 0.03793 0.06312 0.08903 0.31534 1.013 0.067 1239.761 0.01982
0.05009 0.03798 0.06320 0.08914 0.31645 0.935 0.064 1239.791 0.01984
0.05016 0.03803 0.06328 0.08925 0.31756 0.804 0.060 1239.820 0.01987
