x y z dist_scaled dist_frac flux_norm sig_norm wavelength redshift
0.00832 0.02736 0.04960 0.05726 0.00000 0.563 0.226 1231.245 0.01281
0.00834 0.02742 0.04970 0.05737 0.00110 0.714 0.245 1231.275 0.01284
0.00835 0.02747 0.04979 0.05748 0.00220 0.296 0.193 1231.305 0.01286
0.00837 0.02752 0.04989 0.05759 0.00330 0.489 0.219 1231.335 0.01289
0.00838 0.02757 0.04999 0.05770 0.00440 0.644 0.238 1231.365 0.01291
0.00840 0.02763 0.05008 0.05781 0.00550 0.721 0.247 1231.395 0.01293
0.00842 0.02768 0.05018 0.05792 0.00661 0.839 0.259 1231.425 0.01296
0.00843 0.02773 0.05028 0.05803 0.00771 1.069 0.282 1231.454 0.01298
0.00845 0.02779 0.05037 0.05814 0.00881 0.876 0.265 1231.484 0.01301
0.00846 0.02784 0.05047 0.05826 0.00991 0.476 0.216 1231.514 0.01303
0.00848 0.02789 0.05056 0.05837 0.01101 0.606 0.226 1231.544 0.01306
0.00850 0.02795 0.05066 0.05848 0.01211 0.318 0.190 1231.574 0.01308
0.00851 0.02800 0.05076 0.05859 0.01321 0.318 0.190 1231.604 0.01311
0.00853 0.02805 0.05085 0.05870 0.01431 0.700 0.241 1231.634 0.01313
0.00855 0.02811 0.05095 0.05881 0.01541 0.480 0.216 1231.664 0.01316
0.00856 0.02816 0.05104 0.05892 0.01652 0.329 0.196 1231.693 0.01318
0.00858 0.02821 0.05114 0.05903 0.01762 0.580 0.225 1231.723 0.01321
0.00859 0.02826 0.05124 0.05914 0.01872 0.618 0.230 1231.753 0.01323
0.00861 0.02832 0.05133 0.05925 0.01982 0.324 0.193 1231.783 0.01325
0.00863 0.02837 0.05143 0.05936 0.02092 0.652 0.238 1231.813 0.01328
0.00864 0.02842 0.05152 0.05948 0.02202 0.967 0.274 1231.843 0.01330
0.00866 0.02848 0.05162 0.05959 0.02312 0.515 0.218 1231.873 0.01333
0.00867 0.02853 0.05172 0.05970 0.02423 1.062 0.283 1231.903 0.01335
0.00869 0.02858 0.05181 0.05981 0.02533 0.812 0.262 1231.932 0.01338
0.00871 0.02864 0.05191 0.05992 0.02643 1.141 0.292 1231.962 0.01340
0.00872 0.02869 0.05201 0.06003 0.02753 0.718 0.253 1231.992 0.01343
0.00874 0.02874 0.05210 0.06014 0.02863 1.319 0.309 1232.022 0.01345
0.00876 0.02879 0.05220 0.06025 0.02973 0.684 0.251 1232.052 0.01348
0.00877 0.02885 0.05229 0.06036 0.03084 0.950 0.276 1232.082 0.01350
0.00879 0.02890 0.05239 0.06047 0.03194 0.873 0.270 1232.112 0.01352
0.00880 0.02895 0.05249 0.06059 0.03304 1.217 0.301 1232.142 0.01355
0.00882 0.02901 0.05258 0.06070 0.03414 1.145 0.294 1232.171 0.01357
0.00884 0.02906 0.05268 0.06081 0.03524 0.707 0.253 1232.201 0.01360
0.00885 0.02911 0.05277 0.06092 0.03635 1.166 0.299 1232.231 0.01362
0.00887 0.02917 0.05287 0.06103 0.03745 1.384 0.315 1232.261 0.01365
0.00888 0.02922 0.05297 0.06114 0.03855 1.726 0.347 1232.291 0.01367
0.00890 0.02927 0.05306 0.06125 0.03965 1.035 0.290 1232.321 0.01370
0.00892 0.02933 0.05316 0.06136 0.04075 1.166 0.301 1232.351 0.01372
0.00893 0.02938 0.05326 0.06147 0.04186 1.198 0.304 1232.381 0.01375
0.00895 0.02943 0.05335 0.06159 0.04296 0.991 0.287 1232.411 0.01377
0.00896 0.02948 0.05345 0.06170 0.04406 0.958 0.284 1232.440 0.01380
0.00898 0.02954 0.05354 0.06181 0.04516 1.055 0.292 1232.470 0.01382
0.00900 0.02959 0.05364 0.06192 0.04627 1.145 0.301 1232.500 0.01384
0.00901 0.02964 0.05374 0.06203 0.04737 1.125 0.297 1232.530 0.01387
0.00903 0.02970 0.05383 0.06214 0.04847 1.054 0.287 1232.560 0.01389
0.00905 0.02975 0.05393 0.06225 0.04957 1.079 0.286 1232.590 0.01392
0.00906 0.02980 0.05403 0.06236 0.05068 1.216 0.307 1232.620 0.01394
0.00908 0.02986 0.05412 0.06247 0.05178 0.886 0.275 1232.650 0.01397
0.00909 0.02991 0.05422 0.06258 0.05288 0.879 0.274 1232.679 0.01399
0.00911 0.02996 0.05431 0.06270 0.05398 0.960 0.284 1232.709 0.01402
0.00913 0.03002 0.05441 0.06281 0.05509 1.549 0.335 1232.739 0.01404
0.00914 0.03007 0.05451 0.06292 0.05619 0.908 0.281 1232.769 0.01407
0.00916 0.03012 0.05460 0.06303 0.05729 0.795 0.264 1232.799 0.01409
0.00917 0.03017 0.05470 0.06314 0.05840 0.908 0.278 1232.829 0.01411
0.00919 0.03023 0.05480 0.06325 0.05950 0.432 0.227 1232.859 0.01414
0.00921 0.03028 0.05489 0.06336 0.06060 0.634 0.250 1232.889 0.01416
0.00922 0.03033 0.05499 0.06347 0.06170 0.534 0.239 1232.918 0.01419
0.00924 0.03039 0.05508 0.06358 0.06281 0.836 0.276 1232.948 0.01421
0.00926 0.03044 0.05518 0.06370 0.06391 0.797 0.272 1232.978 0.01424
0.00927 0.03049 0.05528 0.06381 0.06501 1.112 0.302 1233.008 0.01426
0.00929 0.03055 0.05537 0.06392 0.06612 0.965 0.291 1233.038 0.01429
0.00930 0.03060 0.05547 0.06403 0.06722 0.838 0.278 1233.068 0.01431
0.00932 0.03065 0.05557 0.06414 0.06832 0.787 0.274 1233.098 0.01434
0.00934 0.03071 0.05566 0.06425 0.06943 0.952 0.292 1233.128 0.01436
0.00935 0.03076 0.05576 0.06436 0.07053 1.049 0.301 1233.157 0.01439
0.00937 0.03081 0.05585 0.06447 0.07163 1.354 0.329 1233.187 0.01441
0.00938 0.03087 0.05595 0.06459 0.07274 0.998 0.298 1233.217 0.01443
0.00940 0.03092 0.05605 0.06470 0.07384 1.047 0.303 1233.247 0.01446
0.00942 0.03097 0.05614 0.06481 0.07494 0.832 0.282 1233.277 0.01448
0.00943 0.03102 0.05624 0.06492 0.07605 0.968 0.295 1233.307 0.01451
0.00945 0.03108 0.05634 0.06503 0.07715 1.140 0.313 1233.337 0.01453
0.00947 0.03113 0.05643 0.06514 0.07825 1.231 0.322 1233.367 0.01456
0.00948 0.03118 0.05653 0.06525 0.07936 1.143 0.314 1233.397 0.01458
0.00950 0.03124 0.05663 0.06536 0.08046 1.234 0.323 1233.426 0.01461
0.00951 0.03129 0.05672 0.06547 0.08156 1.640 0.356 1233.456 0.01463
0.00953 0.03134 0.05682 0.06559 0.08267 1.287 0.328 1233.486 0.01466
0.00955 0.03140 0.05691 0.06570 0.08377 0.846 0.285 1233.516 0.01468
0.00956 0.03145 0.05701 0.06581 0.08488 1.112 0.313 1233.546 0.01470
0.00958 0.03150 0.05711 0.06592 0.08598 1.471 0.345 1233.576 0.01473
0.00959 0.03156 0.05720 0.06603 0.08708 1.119 0.314 1233.606 0.01475
0.00961 0.03161 0.05730 0.06614 0.08819 1.301 0.330 1233.636 0.01478
0.00963 0.03166 0.05740 0.06625 0.08929 0.724 0.273 1233.665 0.01480
0.00964 0.03172 0.05749 0.06636 0.09040 1.216 0.323 1233.695 0.01483
0.00966 0.03177 0.05759 0.06648 0.09150 1.040 0.307 1233.725 0.01485
0.00968 0.03182 0.05769 0.06659 0.09260 1.400 0.340 1233.755 0.01488
0.00969 0.03187 0.05778 0.06670 0.09371 1.442 0.345 1233.785 0.01490
0.00971 0.03193 0.05788 0.06681 0.09481 1.174 0.322 1233.815 0.01493
0.00972 0.03198 0.05797 0.06692 0.09592 1.537 0.353 1233.845 0.01495
0.00974 0.03203 0.05807 0.06703 0.09702 1.271 0.330 1233.875 0.01497
0.00976 0.03209 0.05817 0.06714 0.09813 1.541 0.354 1233.904 0.01500
0.00977 0.03214 0.05826 0.06725 0.09923 0.768 0.282 1233.934 0.01502
0.00979 0.03219 0.05836 0.06737 0.10033 1.132 0.320 1233.964 0.01505
0.00980 0.03225 0.05846 0.06748 0.10144 1.094 0.315 1233.994 0.01507
0.00982 0.03230 0.05855 0.06759 0.10254 1.003 0.306 1234.024 0.01510
0.00984 0.03235 0.05865 0.06770 0.10365 1.098 0.316 1234.054 0.01512
0.00985 0.03241 0.05875 0.06781 0.10475 1.006 0.308 1234.084 0.01515
0.00987 0.03246 0.05884 0.06792 0.10586 1.004 0.309 1234.114 0.01517
0.00989 0.03251 0.05894 0.06803 0.10696 1.283 0.336 1234.143 0.01520
0.00990 0.03257 0.05903 0.06814 0.10807 0.961 0.305 1234.173 0.01522
0.00992 0.03262 0.05913 0.06826 0.10917 1.331 0.341 1234.203 0.01525
0.00993 0.03267 0.05923 0.06837 0.11028 0.825 0.292 1234.233 0.01527
0.00995 0.03273 0.05932 0.06848 0.11138 1.100 0.321 1234.263 0.01529
0.00997 0.03278 0.05942 0.06859 0.11248 0.961 0.305 1234.293 0.01532
0.00998 0.03283 0.05952 0.06870 0.11359 1.239 0.334 1234.323 0.01534
0.01000 0.03289 0.05961 0.06881 0.11469 1.379 0.347 1234.353 0.01537
0.01002 0.03294 0.05971 0.06892 0.11580 1.570 0.363 1234.383 0.01539
0.01003 0.03299 0.05981 0.06904 0.11690 1.103 0.321 1234.412 0.01542
0.01005 0.03304 0.05990 0.06915 0.11801 1.151 0.328 1234.442 0.01544
0.01006 0.03310 0.06000 0.06926 0.11911 1.386 0.349 1234.472 0.01547
0.01008 0.03315 0.06010 0.06937 0.12022 1.202 0.332 1234.502 0.01549
0.01010 0.03320 0.06019 0.06948 0.12132 1.343 0.346 1234.532 0.01552
0.01011 0.03326 0.06029 0.06959 0.12243 0.827 0.296 1234.562 0.01554
0.01013 0.03331 0.06038 0.06970 0.12354 0.973 0.311 1234.592 0.01556
0.01014 0.03336 0.06048 0.06981 0.12464 0.928 0.306 1234.622 0.01559
0.01016 0.03342 0.06058 0.06993 0.12575 0.596 0.267 1234.651 0.01561
0.01018 0.03347 0.06067 0.07004 0.12685 0.974 0.312 1234.681 0.01564
0.01019 0.03352 0.06077 0.07015 0.12796 0.928 0.308 1234.711 0.01566
0.01021 0.03358 0.06087 0.07026 0.12906 0.647 0.276 1234.741 0.01569
0.01023 0.03363 0.06096 0.07037 0.13017 0.459 0.252 1234.771 0.01571
0.01024 0.03368 0.06106 0.07048 0.13127 0.507 0.259 1234.801 0.01574
0.01026 0.03374 0.06116 0.07059 0.13238 0.553 0.266 1234.831 0.01576
0.01027 0.03379 0.06125 0.07071 0.13348 0.934 0.308 1234.861 0.01579
0.01029 0.03384 0.06135 0.07082 0.13459 0.513 0.258 1234.890 0.01581
0.01031 0.03390 0.06145 0.07093 0.13570 0.604 0.273 1234.920 0.01584
0.01032 0.03395 0.06154 0.07104 0.13680 0.370 0.239 1234.950 0.01586
0.01034 0.03400 0.06164 0.07115 0.13791 0.561 0.267 1234.980 0.01588
0.01035 0.03406 0.06174 0.07126 0.13901 0.846 0.301 1235.010 0.01591
0.01037 0.03411 0.06183 0.07137 0.14012 1.038 0.321 1235.040 0.01593
0.01039 0.03416 0.06193 0.07149 0.14122 1.518 0.366 1235.070 0.01596
0.01040 0.03422 0.06203 0.07160 0.14233 1.426 0.358 1235.100 0.01598
0.01042 0.03427 0.06212 0.07171 0.14344 0.993 0.318 1235.129 0.01601
0.01044 0.03432 0.06222 0.07182 0.14454 1.094 0.328 1235.159 0.01603
0.01045 0.03438 0.06231 0.07193 0.14565 1.001 0.318 1235.189 0.01606
0.01047 0.03443 0.06241 0.07204 0.14675 1.193 0.338 1235.219 0.01608
0.01048 0.03448 0.06251 0.07215 0.14786 0.567 0.270 1235.249 0.01611
0.01050 0.03454 0.06260 0.07227 0.14897 0.810 0.299 1235.279 0.01613
0.01052 0.03459 0.06270 0.07238 0.15007 0.817 0.298 1235.309 0.01615
0.01053 0.03464 0.06280 0.07249 0.15118 0.869 0.305 1235.339 0.01618
0.01055 0.03470 0.06289 0.07260 0.15228 0.730 0.288 1235.369 0.01620
0.01057 0.03475 0.06299 0.07271 0.15339 0.902 0.303 1235.398 0.01623
0.01058 0.03480 0.06309 0.07282 0.15450 0.859 0.294 1235.428 0.01625
0.01060 0.03486 0.06318 0.07293 0.15560 0.338 0.222 1235.458 0.01628
0.01061 0.03491 0.06328 0.07305 0.15671 0.739 0.286 1235.488 0.01630
0.01063 0.03496 0.06338 0.07316 0.15782 0.280 0.217 1235.518 0.01633
0.01065 0.03501 0.06347 0.07327 0.15892 0.495 0.249 1235.548 0.01635
0.01066 0.03507 0.06357 0.07338 0.16003 0.250 0.218 1235.578 0.01638
0.01068 0.03512 0.06367 0.07349 0.16114 0.445 0.253 1235.608 0.01640
0.01070 0.03517 0.06376 0.07360 0.16224 0.253 0.219 1235.637 0.01643
0.01071 0.03523 0.06386 0.07371 0.16335 0.150 0.204 1235.667 0.01645
0.01073 0.03528 0.06396 0.07383 0.16446 0.088 0.191 1235.697 0.01647
0.01074 0.03533 0.06405 0.07394 0.16556 0.261 0.222 1235.727 0.01650
0.01076 0.03539 0.06415 0.07405 0.16667 0.307 0.232 1235.757 0.01652
0.01078 0.03544 0.06425 0.07416 0.16778 0.261 0.221 1235.787 0.01655
0.01079 0.03549 0.06434 0.07427 0.16888 0.401 0.246 1235.817 0.01657
0.01081 0.03555 0.06444 0.07438 0.16999 0.151 0.205 1235.847 0.01660
0.01082 0.03560 0.06454 0.07450 0.17110 0.449 0.255 1235.876 0.01662
0.01084 0.03565 0.06463 0.07461 0.17220 0.596 0.274 1235.906 0.01665
0.01086 0.03571 0.06473 0.07472 0.17331 0.438 0.256 1235.936 0.01667
0.01087 0.03576 0.06483 0.07483 0.17442 0.796 0.300 1235.966 0.01670
0.01089 0.03581 0.06492 0.07494 0.17553 1.508 0.368 1235.996 0.01672
0.01091 0.03587 0.06502 0.07505 0.17663 0.655 0.270 1236.026 0.01674
0.01092 0.03592 0.06512 0.07516 0.17774 0.994 0.312 1236.056 0.01677
0.01094 0.03597 0.06521 0.07528 0.17885 0.902 0.296 1236.086 0.01679
0.01095 0.03603 0.06531 0.07539 0.17995 1.507 0.363 1236.115 0.01682
0.01097 0.03608 0.06541 0.07550 0.18106 1.465 0.360 1236.145 0.01684
0.01099 0.03613 0.06550 0.07561 0.18217 0.764 0.293 1236.175 0.01687
0.01100 0.03619 0.06560 0.07572 0.18328 1.075 0.325 1236.205 0.01689
0.01102 0.03624 0.06570 0.07583 0.18438 1.419 0.360 1236.235 0.01692
0.01104 0.03629 0.06579 0.07595 0.18549 1.406 0.358 1236.265 0.01694
0.01105 0.03635 0.06589 0.07606 0.18660 1.127 0.321 1236.295 0.01697
0.01107 0.03640 0.06599 0.07617 0.18771 1.247 0.339 1236.325 0.01699
0.01108 0.03645 0.06608 0.07628 0.18881 1.426 0.354 1236.355 0.01701
0.01110 0.03651 0.06618 0.07639 0.18992 0.751 0.292 1236.384 0.01704
0.01112 0.03656 0.06628 0.07650 0.19103 1.067 0.328 1236.414 0.01706
0.01113 0.03661 0.06637 0.07661 0.19214 0.971 0.318 1236.444 0.01709
0.01115 0.03667 0.06647 0.07673 0.19324 1.041 0.330 1236.474 0.01711
0.01117 0.03672 0.06657 0.07684 0.19435 0.591 0.277 1236.504 0.01714
0.01118 0.03677 0.06666 0.07695 0.19546 0.738 0.298 1236.534 0.01716
0.01120 0.03683 0.06676 0.07706 0.19657 0.990 0.324 1236.564 0.01719
0.01121 0.03688 0.06686 0.07717 0.19768 0.792 0.303 1236.594 0.01721
0.01123 0.03693 0.06695 0.07728 0.19878 0.988 0.325 1236.623 0.01724
0.01125 0.03699 0.06705 0.07740 0.19989 0.688 0.287 1236.653 0.01726
0.01126 0.03704 0.06715 0.07751 0.20100 0.787 0.304 1236.683 0.01729
0.01128 0.03709 0.06724 0.07762 0.20211 0.988 0.327 1236.713 0.01731
0.01129 0.03715 0.06734 0.07773 0.20322 1.537 0.378 1236.743 0.01733
0.01131 0.03720 0.06744 0.07784 0.20432 1.036 0.331 1236.773 0.01736
0.01133 0.03725 0.06753 0.07795 0.20543 1.344 0.360 1236.803 0.01738
0.01134 0.03731 0.06763 0.07807 0.20654 1.294 0.356 1236.833 0.01741
0.01136 0.03736 0.06773 0.07818 0.20765 1.143 0.342 1236.862 0.01743
0.01138 0.03741 0.06782 0.07829 0.20876 0.994 0.328 1236.892 0.01746
0.01139 0.03747 0.06792 0.07840 0.20987 1.192 0.348 1236.922 0.01748
0.01141 0.03752 0.06802 0.07851 0.21097 1.048 0.332 1236.952 0.01751
0.01142 0.03757 0.06811 0.07862 0.21208 0.948 0.322 1236.982 0.01753
0.01144 0.03763 0.06821 0.07874 0.21319 1.347 0.362 1237.012 0.01756
0.01146 0.03768 0.06831 0.07885 0.21430 0.845 0.323 1237.042 0.01758
0.01147 0.03773 0.06840 0.07896 0.21541 0.856 0.316 1237.072 0.01760
0.01149 0.03779 0.06850 0.07907 0.21652 0.661 0.311 1237.101 0.01763
0.01151 0.03784 0.06860 0.07918 0.21762 0.643 0.289 1237.131 0.01765
0.01152 0.03789 0.06869 0.07929 0.21873 0.645 0.288 1237.161 0.01768
0.01154 0.03795 0.06879 0.07941 0.21984 0.391 0.252 1237.191 0.01770
0.01155 0.03800 0.06889 0.07952 0.22095 0.844 0.313 1237.221 0.01773
0.01157 0.03805 0.06898 0.07963 0.22206 0.505 0.267 1237.251 0.01775
0.01159 0.03811 0.06908 0.07974 0.22317 0.861 0.313 1237.281 0.01778
0.01160 0.03816 0.06918 0.07985 0.22428 1.167 0.345 1237.311 0.01780
0.01162 0.03821 0.06927 0.07996 0.22539 0.918 0.318 1237.341 0.01783
0.01164 0.03827 0.06937 0.08008 0.22650 1.633 0.386 1237.370 0.01785
0.01165 0.03832 0.06947 0.08019 0.22760 1.272 0.355 1237.400 0.01788
0.01167 0.03838 0.06956 0.08030 0.22871 1.610 0.386 1237.430 0.01790
0.01168 0.03843 0.06966 0.08041 0.22982 1.651 0.391 1237.460 0.01792
0.01170 0.03848 0.06976 0.08052 0.23093 1.497 0.372 1237.490 0.01795
0.01172 0.03854 0.06986 0.08064 0.23204 1.058 0.334 1237.520 0.01797
0.01173 0.03859 0.06995 0.08075 0.23315 1.443 0.367 1237.550 0.01800
0.01175 0.03864 0.07005 0.08086 0.23426 0.999 0.324 1237.580 0.01802
0.01177 0.03870 0.07015 0.08097 0.23537 0.910 0.319 1237.609 0.01805
0.01178 0.03875 0.07024 0.08108 0.23648 1.064 0.335 1237.639 0.01807
0.01180 0.03880 0.07034 0.08119 0.23759 1.302 0.360 1237.669 0.01810
0.01181 0.03886 0.07044 0.08131 0.23870 1.057 0.336 1237.699 0.01812
0.01183 0.03891 0.07053 0.08142 0.23981 0.747 0.302 1237.729 0.01815
0.01185 0.03896 0.07063 0.08153 0.24092 0.955 0.319 1237.759 0.01817
0.01186 0.03902 0.07073 0.08164 0.24202 1.210 0.351 1237.789 0.01819
0.01188 0.03907 0.07082 0.08175 0.24313 1.359 0.365 1237.819 0.01822
0.01190 0.03912 0.07092 0.08186 0.24424 0.953 0.325 1237.848 0.01824
0.01191 0.03918 0.07102 0.08198 0.24535 0.539 0.277 1237.878 0.01827
0.01193 0.03923 0.07111 0.08209 0.24646 0.740 0.302 1237.908 0.01829
0.01194 0.03928 0.07121 0.08220 0.24757 0.691 0.297 1237.938 0.01832
0.01196 0.03934 0.07131 0.08231 0.24868 0.790 0.309 1237.968 0.01834
0.01198 0.03939 0.07140 0.08242 0.24979 0.887 0.308 1237.998 0.01837
0.01199 0.03944 0.07150 0.08254 0.25090 0.331 0.248 1238.028 0.01839
0.01201 0.03950 0.07160 0.08265 0.25201 0.279 0.231 1238.058 0.01842
0.01203 0.03955 0.07170 0.08276 0.25312 0.434 0.255 1238.087 0.01844
0.01204 0.03960 0.07179 0.08287 0.25423 0.179 0.211 1238.117 0.01847
0.01206 0.03966 0.07189 0.08298 0.25534 0.076 0.176 1238.147 0.01849
0.01207 0.03971 0.07199 0.08309 0.25645 0.380 0.240 1238.177 0.01851
0.01209 0.03976 0.07208 0.08321 0.25756 0.332 0.247 1238.207 0.01854
0.01211 0.03982 0.07218 0.08332 0.25867 0.439 0.262 1238.237 0.01856
0.01212 0.03987 0.07228 0.08343 0.25978 0.944 0.325 1238.267 0.01859
0.01214 0.03992 0.07237 0.08354 0.26089 1.346 0.360 1238.297 0.01861
0.01216 0.03998 0.07247 0.08365 0.26200 1.042 0.335 1238.327 0.01864
0.01217 0.04003 0.07257 0.08377 0.26311 1.039 0.330 1238.356 0.01866
0.01219 0.04008 0.07266 0.08388 0.26422 1.094 0.336 1238.386 0.01869
0.01220 0.04014 0.07276 0.08399 0.26533 0.889 0.314 1238.416 0.01871
0.01222 0.04019 0.07286 0.08410 0.26644 1.099 0.340 1238.446 0.01874
0.01224 0.04025 0.07295 0.08421 0.26755 0.992 0.325 1238.476 0.01876
0.01225 0.04030 0.07305 0.08432 0.26866 1.343 0.355 1238.506 0.01878
0.01227 0.04035 0.07315 0.08444 0.26978 0.895 0.319 1238.536 0.01881
0.01229 0.04041 0.07325 0.08455 0.27089 0.844 0.314 1238.566 0.01883
0.01230 0.04046 0.07334 0.08466 0.27200 1.402 0.370 1238.595 0.01886
0.01232 0.04051 0.07344 0.08477 0.27311 0.743 0.302 1238.625 0.01888
0.01233 0.04057 0.07354 0.08488 0.27422 0.895 0.319 1238.655 0.01891
0.01235 0.04062 0.07363 0.08500 0.27533 1.155 0.346 1238.685 0.01893
0.01237 0.04067 0.07373 0.08511 0.27644 0.951 0.325 1238.715 0.01896
0.01238 0.04073 0.07383 0.08522 0.27755 0.824 0.308 1238.745 0.01898
0.01240 0.04078 0.07392 0.08533 0.27866 0.417 0.256 1238.775 0.01901
0.01242 0.04083 0.07402 0.08544 0.27977 0.633 0.284 1238.805 0.01903
0.01243 0.04089 0.07412 0.08556 0.28088 0.342 0.246 1238.834 0.01905
0.01245 0.04094 0.07422 0.08567 0.28199 0.614 0.282 1238.864 0.01908
0.01246 0.04099 0.07431 0.08578 0.28310 0.307 0.237 1238.894 0.01910
0.01248 0.04105 0.07441 0.08589 0.28422 0.630 0.279 1238.924 0.01913
0.01250 0.04110 0.07451 0.08600 0.28533 0.856 0.314 1238.954 0.01915
0.01251 0.04115 0.07460 0.08612 0.28644 0.762 0.302 1238.984 0.01918
0.01253 0.04121 0.07470 0.08623 0.28755 0.945 0.318 1239.014 0.01920
0.01255 0.04126 0.07480 0.08634 0.28866 0.344 0.247 1239.044 0.01923
0.01256 0.04131 0.07489 0.08645 0.28977 0.414 0.250 1239.073 0.01925
0.01258 0.04137 0.07499 0.08656 0.29088 0.647 0.290 1239.103 0.01928
0.01259 0.04142 0.07509 0.08668 0.29199 0.565 0.273 1239.133 0.01930
0.01261 0.04148 0.07519 0.08679 0.29310 0.506 0.270 1239.163 0.01933
0.01263 0.04153 0.07528 0.08690 0.29422 0.599 0.282 1239.193 0.01935
0.01264 0.04158 0.07538 0.08701 0.29533 0.701 0.295 1239.223 0.01937
0.01266 0.04164 0.07548 0.08712 0.29644 0.959 0.324 1239.253 0.01940
0.01268 0.04169 0.07557 0.08724 0.29755 1.008 0.329 1239.283 0.01942
0.01269 0.04174 0.07567 0.08735 0.29866 0.551 0.276 1239.313 0.01945
0.01271 0.04180 0.07577 0.08746 0.29977 0.861 0.313 1239.342 0.01947
0.01272 0.04185 0.07586 0.08757 0.30089 1.158 0.344 1239.372 0.01950
0.01274 0.04190 0.07596 0.08768 0.30200 1.111 0.339 1239.402 0.01952
0.01276 0.04196 0.07606 0.08780 0.30311 1.310 0.357 1239.432 0.01955
0.01277 0.04201 0.07616 0.08791 0.30422 0.855 0.309 1239.462 0.01957
0.01279 0.04206 0.07625 0.08802 0.30533 0.700 0.295 1239.492 0.01960
0.01281 0.04212 0.07635 0.08813 0.30644 0.498 0.265 1239.522 0.01962
0.01282 0.04217 0.07645 0.08824 0.30756 0.448 0.260 1239.552 0.01964
0.01284 0.04222 0.07654 0.08836 0.30867 0.805 0.306 1239.581 0.01967
0.01285 0.04228 0.07664 0.08847 0.30978 1.255 0.353 1239.611 0.01969
0.01287 0.04233 0.07674 0.08858 0.31089 0.853 0.310 1239.641 0.01972
0.01289 0.04239 0.07683 0.08869 0.31200 0.896 0.317 1239.671 0.01974
0.01290 0.04244 0.07693 0.08880 0.31312 0.898 0.317 1239.701 0.01977
0.01292 0.04249 0.07703 0.08892 0.31423 1.148 0.343 1239.731 0.01979
0.01294 0.04255 0.07713 0.08903 0.31534 1.200 0.347 1239.761 0.01982
0.01295 0.04260 0.07722 0.08914 0.31645 1.249 0.352 1239.791 0.01984
0.01297 0.04265 0.07732 0.08925 0.31756 1.047 0.332 1239.820 0.01987
