x y z dist_scaled dist_frac flux_norm sig_norm wavelength redshift
0.03462 0.02289 0.03944 0.05726 0.00000 0.860 0.278 1231.245 0.01281
0.03469 0.02294 0.03952 0.05737 0.00110 1.116 0.303 1231.275 0.01284
0.03476 0.02298 0.03960 0.05748 0.00220 0.858 0.278 1231.305 0.01286
0.03482 0.02302 0.03967 0.05759 0.00330 1.072 0.299 1231.335 0.01289
0.03489 0.02307 0.03975 0.05770 0.00440 1.113 0.303 1231.365 0.01291
0.03496 0.02311 0.03982 0.05781 0.00550 1.117 0.303 1231.395 0.01293
0.03502 0.02316 0.03990 0.05792 0.00661 1.241 0.313 1231.425 0.01296
0.03509 0.02320 0.03998 0.05803 0.00771 0.858 0.278 1231.454 0.01298
0.03516 0.02325 0.04005 0.05814 0.00881 1.155 0.307 1231.484 0.01301
0.03523 0.02329 0.04013 0.05826 0.00991 0.771 0.268 1231.514 0.01303
0.03529 0.02333 0.04021 0.05837 0.01101 1.028 0.294 1231.544 0.01306
0.03536 0.02338 0.04028 0.05848 0.01211 1.068 0.299 1231.574 0.01308
0.03543 0.02342 0.04036 0.05859 0.01321 0.984 0.290 1231.604 0.01311
0.03549 0.02347 0.04044 0.05870 0.01431 1.069 0.299 1231.634 0.01313
0.03556 0.02351 0.04051 0.05881 0.01541 0.898 0.282 1231.664 0.01316
0.03563 0.02356 0.04059 0.05892 0.01652 1.068 0.298 1231.693 0.01318
0.03569 0.02360 0.04067 0.05903 0.01762 1.070 0.299 1231.723 0.01321
0.03576 0.02364 0.04074 0.05914 0.01872 0.769 0.268 1231.753 0.01323
0.03583 0.02369 0.04082 0.05925 0.01982 1.066 0.298 1231.783 0.01325
0.03590 0.02373 0.04089 0.05936 0.02092 0.810 0.273 1231.813 0.01328
0.03596 0.02378 0.04097 0.05948 0.02202 0.598 0.249 1231.843 0.01330
0.03603 0.02382 0.04105 0.05959 0.02312 1.021 0.292 1231.873 0.01333
0.03610 0.02387 0.04112 0.05970 0.02423 0.981 0.288 1231.903 0.01335
0.03616 0.02391 0.04120 0.05981 0.02533 1.025 0.295 1231.932 0.01338
0.03623 0.02396 0.04128 0.05992 0.02643 1.238 0.313 1231.962 0.01340
0.03630 0.02400 0.04135 0.06003 0.02753 1.153 0.306 1231.992 0.01343
0.03637 0.02404 0.04143 0.06014 0.02863 1.192 0.309 1232.022 0.01345
0.03643 0.02409 0.04151 0.06025 0.02973 1.236 0.314 1232.052 0.01348
0.03650 0.02413 0.04158 0.06036 0.03084 0.983 0.290 1232.082 0.01350
0.03657 0.02418 0.04166 0.06047 0.03194 1.241 0.313 1232.112 0.01352
0.03663 0.02422 0.04174 0.06059 0.03304 1.662 0.348 1232.142 0.01355
0.03670 0.02427 0.04181 0.06070 0.03414 1.238 0.314 1232.171 0.01357
0.03677 0.02431 0.04189 0.06081 0.03524 0.771 0.268 1232.201 0.01360
0.03684 0.02435 0.04197 0.06092 0.03635 1.279 0.317 1232.231 0.01362
0.03690 0.02440 0.04204 0.06103 0.03745 0.895 0.282 1232.261 0.01365
0.03697 0.02444 0.04212 0.06114 0.03855 1.192 0.310 1232.291 0.01367
0.03704 0.02449 0.04219 0.06125 0.03965 0.852 0.275 1232.321 0.01370
0.03710 0.02453 0.04227 0.06136 0.04075 1.318 0.321 1232.351 0.01372
0.03717 0.02458 0.04235 0.06147 0.04186 1.149 0.306 1232.381 0.01375
0.03724 0.02462 0.04242 0.06159 0.04296 0.853 0.276 1232.411 0.01377
0.03731 0.02467 0.04250 0.06170 0.04406 0.897 0.281 1232.440 0.01380
0.03737 0.02471 0.04258 0.06181 0.04516 0.771 0.266 1232.470 0.01382
0.03744 0.02475 0.04265 0.06192 0.04627 0.940 0.285 1232.500 0.01384
0.03751 0.02480 0.04273 0.06203 0.04737 1.321 0.320 1232.530 0.01387
0.03757 0.02484 0.04281 0.06214 0.04847 0.727 0.263 1232.560 0.01389
0.03764 0.02489 0.04288 0.06225 0.04957 0.643 0.253 1232.590 0.01392
0.03771 0.02493 0.04296 0.06236 0.05068 0.771 0.267 1232.620 0.01394
0.03778 0.02498 0.04304 0.06247 0.05178 0.855 0.276 1232.650 0.01397
0.03784 0.02502 0.04311 0.06258 0.05288 0.853 0.276 1232.679 0.01399
0.03791 0.02507 0.04319 0.06270 0.05398 0.771 0.267 1232.709 0.01402
0.03798 0.02511 0.04327 0.06281 0.05509 1.360 0.323 1232.739 0.01404
0.03804 0.02515 0.04334 0.06292 0.05619 0.769 0.267 1232.769 0.01407
0.03811 0.02520 0.04342 0.06303 0.05729 0.894 0.278 1232.799 0.01409
0.03818 0.02524 0.04350 0.06314 0.05840 1.060 0.294 1232.829 0.01411
0.03825 0.02529 0.04357 0.06325 0.05950 0.720 0.262 1232.859 0.01414
0.03831 0.02533 0.04365 0.06336 0.06060 0.847 0.276 1232.889 0.01416
0.03838 0.02538 0.04373 0.06347 0.06170 0.889 0.280 1232.918 0.01419
0.03845 0.02542 0.04380 0.06358 0.06281 0.976 0.288 1232.948 0.01421
0.03852 0.02547 0.04388 0.06370 0.06391 0.934 0.285 1232.978 0.01424
0.03858 0.02551 0.04395 0.06381 0.06501 1.309 0.319 1233.008 0.01426
0.03865 0.02555 0.04403 0.06392 0.06612 0.763 0.267 1233.038 0.01429
0.03872 0.02560 0.04411 0.06403 0.06722 1.058 0.296 1233.068 0.01431
0.03878 0.02564 0.04418 0.06414 0.06832 0.637 0.251 1233.098 0.01434
0.03885 0.02569 0.04426 0.06425 0.06943 1.058 0.297 1233.128 0.01436
0.03892 0.02573 0.04434 0.06436 0.07053 0.931 0.284 1233.157 0.01439
0.03899 0.02578 0.04441 0.06447 0.07163 1.270 0.315 1233.187 0.01441
0.03905 0.02582 0.04449 0.06459 0.07274 0.934 0.279 1233.217 0.01443
0.03912 0.02587 0.04457 0.06470 0.07384 1.065 0.296 1233.247 0.01446
0.03919 0.02591 0.04464 0.06481 0.07494 1.007 0.287 1233.277 0.01448
0.03925 0.02595 0.04472 0.06492 0.07605 1.299 0.311 1233.307 0.01451
0.03932 0.02600 0.04480 0.06503 0.07715 1.281 0.310 1233.337 0.01453
0.03939 0.02604 0.04487 0.06514 0.07825 0.901 0.275 1233.367 0.01456
0.03946 0.02609 0.04495 0.06525 0.07936 1.618 0.342 1233.397 0.01458
0.03952 0.02613 0.04503 0.06536 0.08046 0.921 0.279 1233.426 0.01461
0.03959 0.02618 0.04510 0.06547 0.08156 1.011 0.287 1233.456 0.01463
0.03966 0.02622 0.04518 0.06559 0.08267 1.040 0.288 1233.486 0.01466
0.03973 0.02627 0.04526 0.06570 0.08377 1.318 0.318 1233.516 0.01468
0.03979 0.02631 0.04533 0.06581 0.08488 1.430 0.325 1233.546 0.01470
0.03986 0.02635 0.04541 0.06592 0.08598 1.791 0.352 1233.576 0.01473
0.03993 0.02640 0.04549 0.06603 0.08708 0.930 0.277 1233.606 0.01475
0.03999 0.02644 0.04556 0.06614 0.08819 1.176 0.303 1233.636 0.01478
0.04006 0.02649 0.04564 0.06625 0.08929 1.167 0.302 1233.665 0.01480
0.04013 0.02653 0.04572 0.06636 0.09040 1.433 0.328 1233.695 0.01483
0.04020 0.02658 0.04579 0.06648 0.09150 1.055 0.295 1233.725 0.01485
0.04026 0.02662 0.04587 0.06659 0.09260 0.718 0.261 1233.755 0.01488
0.04033 0.02667 0.04595 0.06670 0.09371 1.017 0.291 1233.785 0.01490
0.04040 0.02671 0.04602 0.06681 0.09481 1.059 0.295 1233.815 0.01493
0.04046 0.02675 0.04610 0.06692 0.09592 1.232 0.309 1233.845 0.01495
0.04053 0.02680 0.04618 0.06703 0.09702 0.895 0.279 1233.875 0.01497
0.04060 0.02684 0.04625 0.06714 0.09813 0.769 0.265 1233.904 0.01500
0.04067 0.02689 0.04633 0.06725 0.09923 0.937 0.283 1233.934 0.01502
0.04073 0.02693 0.04641 0.06737 0.10033 0.977 0.287 1233.964 0.01505
0.04080 0.02698 0.04648 0.06748 0.10144 1.227 0.310 1233.994 0.01507
0.04087 0.02702 0.04656 0.06759 0.10254 0.724 0.260 1234.024 0.01510
0.04094 0.02707 0.04664 0.06770 0.10365 0.974 0.287 1234.054 0.01512
0.04100 0.02711 0.04671 0.06781 0.10475 0.890 0.278 1234.084 0.01515
0.04107 0.02715 0.04679 0.06792 0.10586 0.806 0.269 1234.114 0.01517
0.04114 0.02720 0.04687 0.06803 0.10696 1.100 0.298 1234.143 0.01520
0.04121 0.02724 0.04694 0.06814 0.10807 0.935 0.282 1234.173 0.01522
0.04127 0.02729 0.04702 0.06826 0.10917 1.063 0.294 1234.203 0.01525
0.04134 0.02733 0.04710 0.06837 0.11028 0.600 0.245 1234.233 0.01527
0.04141 0.02738 0.04717 0.06848 0.11138 0.975 0.285 1234.263 0.01529
0.04147 0.02742 0.04725 0.06859 0.11248 1.394 0.323 1234.293 0.01532
0.04154 0.02747 0.04733 0.06870 0.11359 1.225 0.308 1234.323 0.01534
0.04161 0.02751 0.04740 0.06881 0.11469 1.433 0.326 1234.353 0.01537
0.04168 0.02756 0.04748 0.06892 0.11580 0.891 0.276 1234.383 0.01539
0.04174 0.02760 0.04756 0.06904 0.11690 1.224 0.309 1234.412 0.01542
0.04181 0.02764 0.04763 0.06915 0.11801 1.015 0.289 1234.442 0.01544
0.04188 0.02769 0.04771 0.06926 0.11911 1.435 0.326 1234.472 0.01547
0.04195 0.02773 0.04779 0.06937 0.12022 1.183 0.305 1234.502 0.01549
0.04201 0.02778 0.04786 0.06948 0.12132 1.310 0.316 1234.532 0.01552
0.04208 0.02782 0.04794 0.06959 0.12243 1.141 0.300 1234.562 0.01554
0.04215 0.02787 0.04802 0.06970 0.12354 1.102 0.296 1234.592 0.01556
0.04221 0.02791 0.04809 0.06981 0.12464 0.847 0.272 1234.622 0.01559
0.04228 0.02796 0.04817 0.06993 0.12575 0.972 0.284 1234.651 0.01561
0.04235 0.02800 0.04825 0.07004 0.12685 0.766 0.262 1234.681 0.01564
0.04242 0.02804 0.04832 0.07015 0.12796 0.682 0.254 1234.711 0.01566
0.04248 0.02809 0.04840 0.07026 0.12906 1.141 0.301 1234.741 0.01569
0.04255 0.02813 0.04848 0.07037 0.13017 0.847 0.272 1234.771 0.01571
0.04262 0.02818 0.04855 0.07048 0.13127 0.597 0.244 1234.801 0.01574
0.04269 0.02822 0.04863 0.07059 0.13238 0.808 0.268 1234.831 0.01576
0.04275 0.02827 0.04871 0.07071 0.13348 1.600 0.339 1234.861 0.01579
0.04282 0.02831 0.04878 0.07082 0.13459 1.099 0.297 1234.890 0.01581
0.04289 0.02836 0.04886 0.07093 0.13570 0.933 0.280 1234.920 0.01584
0.04296 0.02840 0.04894 0.07104 0.13680 0.769 0.261 1234.950 0.01586
0.04302 0.02845 0.04901 0.07115 0.13791 0.893 0.276 1234.980 0.01588
0.04309 0.02849 0.04909 0.07126 0.13901 0.647 0.248 1235.010 0.01591
0.04316 0.02853 0.04917 0.07137 0.14012 0.812 0.267 1235.040 0.01593
0.04323 0.02858 0.04924 0.07149 0.14122 0.854 0.271 1235.070 0.01596
0.04329 0.02862 0.04932 0.07160 0.14233 0.855 0.271 1235.100 0.01598
0.04336 0.02867 0.04940 0.07171 0.14344 0.980 0.282 1235.129 0.01601
0.04343 0.02871 0.04947 0.07182 0.14454 0.562 0.238 1235.159 0.01603
0.04349 0.02876 0.04955 0.07193 0.14565 1.022 0.287 1235.189 0.01606
0.04356 0.02880 0.04963 0.07204 0.14675 0.480 0.227 1235.219 0.01608
0.04363 0.02885 0.04970 0.07215 0.14786 0.520 0.232 1235.249 0.01611
0.04370 0.02889 0.04978 0.07227 0.14897 0.437 0.221 1235.279 0.01613
0.04376 0.02894 0.04986 0.07238 0.15007 0.640 0.248 1235.309 0.01615
0.04383 0.02898 0.04993 0.07249 0.15118 1.139 0.299 1235.339 0.01618
0.04390 0.02902 0.05001 0.07260 0.15228 0.642 0.248 1235.369 0.01620
0.04397 0.02907 0.05009 0.07271 0.15339 0.764 0.261 1235.398 0.01623
0.04403 0.02911 0.05017 0.07282 0.15450 0.845 0.270 1235.428 0.01625
0.04410 0.02916 0.05024 0.07293 0.15560 0.972 0.282 1235.458 0.01628
0.04417 0.02920 0.05032 0.07305 0.15671 1.388 0.320 1235.488 0.01630
0.04424 0.02925 0.05040 0.07316 0.15782 1.384 0.320 1235.518 0.01633
0.04430 0.02929 0.05047 0.07327 0.15892 1.593 0.335 1235.548 0.01635
0.04437 0.02934 0.05055 0.07338 0.16003 0.805 0.265 1235.578 0.01638
0.04444 0.02938 0.05063 0.07349 0.16114 1.053 0.290 1235.608 0.01640
0.04451 0.02943 0.05070 0.07360 0.16224 1.137 0.298 1235.637 0.01643
0.04457 0.02947 0.05078 0.07371 0.16335 1.464 0.327 1235.667 0.01645
0.04464 0.02951 0.05086 0.07383 0.16446 0.927 0.278 1235.697 0.01647
0.04471 0.02956 0.05093 0.07394 0.16556 1.093 0.294 1235.727 0.01650
0.04478 0.02960 0.05101 0.07405 0.16667 1.630 0.339 1235.757 0.01652
0.04484 0.02965 0.05109 0.07416 0.16778 1.090 0.294 1235.787 0.01655
0.04491 0.02969 0.05116 0.07427 0.16888 1.090 0.292 1235.817 0.01657
0.04498 0.02974 0.05124 0.07438 0.16999 0.925 0.278 1235.847 0.01660
0.04505 0.02978 0.05132 0.07450 0.17110 1.047 0.290 1235.876 0.01662
0.04511 0.02983 0.05139 0.07461 0.17220 0.964 0.281 1235.906 0.01665
0.04518 0.02987 0.05147 0.07472 0.17331 1.129 0.297 1235.936 0.01667
0.04525 0.02992 0.05155 0.07483 0.17442 0.960 0.281 1235.966 0.01670
0.04531 0.02996 0.05162 0.07494 0.17553 1.250 0.308 1235.996 0.01672
0.04538 0.03001 0.05170 0.07505 0.17663 1.126 0.297 1236.026 0.01674
0.04545 0.03005 0.05178 0.07516 0.17774 1.125 0.297 1236.056 0.01677
0.04552 0.03009 0.05186 0.07528 0.17885 0.918 0.277 1236.086 0.01679
0.04558 0.03014 0.05193 0.07539 0.17995 0.957 0.281 1236.115 0.01682
0.04565 0.03018 0.05201 0.07550 0.18106 1.245 0.307 1236.145 0.01684
0.04572 0.03023 0.05209 0.07561 0.18217 0.833 0.268 1236.175 0.01687
0.04579 0.03027 0.05216 0.07572 0.18328 1.080 0.292 1236.205 0.01689
0.04585 0.03032 0.05224 0.07583 0.18438 0.626 0.245 1236.235 0.01692
0.04592 0.03036 0.05232 0.07595 0.18549 0.957 0.281 1236.265 0.01694
0.04599 0.03041 0.05239 0.07606 0.18660 1.243 0.307 1236.295 0.01697
0.04606 0.03045 0.05247 0.07617 0.18771 1.161 0.298 1236.325 0.01699
0.04612 0.03050 0.05255 0.07628 0.18881 0.956 0.280 1236.355 0.01701
0.04619 0.03054 0.05262 0.07639 0.18992 0.994 0.284 1236.384 0.01704
0.04626 0.03059 0.05270 0.07650 0.19103 1.037 0.288 1236.414 0.01706
0.04633 0.03063 0.05278 0.07661 0.19214 1.159 0.299 1236.444 0.01709
0.04639 0.03067 0.05285 0.07673 0.19324 0.953 0.280 1236.474 0.01711
0.04646 0.03072 0.05293 0.07684 0.19435 0.707 0.254 1236.504 0.01714
0.04653 0.03076 0.05301 0.07695 0.19546 0.950 0.279 1236.534 0.01716
0.04660 0.03081 0.05309 0.07706 0.19657 1.279 0.310 1236.564 0.01719
0.04666 0.03085 0.05316 0.07717 0.19768 1.073 0.292 1236.594 0.01721
0.04673 0.03090 0.05324 0.07728 0.19878 0.826 0.267 1236.623 0.01724
0.04680 0.03094 0.05332 0.07740 0.19989 1.234 0.305 1236.653 0.01726
0.04687 0.03099 0.05339 0.07751 0.20100 0.946 0.279 1236.683 0.01729
0.04693 0.03103 0.05347 0.07762 0.20211 0.821 0.265 1236.713 0.01731
0.04700 0.03108 0.05355 0.07773 0.20322 1.068 0.290 1236.743 0.01733
0.04707 0.03112 0.05362 0.07784 0.20432 0.863 0.270 1236.773 0.01736
0.04714 0.03117 0.05370 0.07795 0.20543 0.903 0.275 1236.803 0.01738
0.04720 0.03121 0.05378 0.07807 0.20654 0.779 0.262 1236.833 0.01741
0.04727 0.03125 0.05385 0.07818 0.20765 0.740 0.258 1236.862 0.01743
0.04734 0.03130 0.05393 0.07829 0.20876 1.148 0.297 1236.892 0.01746
0.04741 0.03134 0.05401 0.07840 0.20987 1.066 0.290 1236.922 0.01748
0.04747 0.03139 0.05408 0.07851 0.21097 1.027 0.286 1236.952 0.01751
0.04754 0.03143 0.05416 0.07862 0.21208 0.823 0.266 1236.982 0.01753
0.04761 0.03148 0.05424 0.07874 0.21319 0.903 0.275 1237.012 0.01756
0.04768 0.03152 0.05432 0.07885 0.21430 0.901 0.274 1237.042 0.01758
0.04774 0.03157 0.05439 0.07896 0.21541 0.984 0.282 1237.072 0.01760
0.04781 0.03161 0.05447 0.07907 0.21652 1.147 0.297 1237.101 0.01763
0.04788 0.03166 0.05455 0.07918 0.21762 1.226 0.304 1237.131 0.01765
0.04795 0.03170 0.05462 0.07929 0.21873 1.391 0.318 1237.161 0.01768
0.04801 0.03175 0.05470 0.07941 0.21984 1.106 0.292 1237.191 0.01770
0.04808 0.03179 0.05478 0.07952 0.22095 0.904 0.274 1237.221 0.01773
0.04815 0.03184 0.05485 0.07963 0.22206 1.107 0.292 1237.251 0.01775
0.04822 0.03188 0.05493 0.07974 0.22317 0.819 0.264 1237.281 0.01778
0.04828 0.03192 0.05501 0.07985 0.22428 1.509 0.327 1237.311 0.01780
0.04835 0.03197 0.05509 0.07996 0.22539 1.512 0.327 1237.341 0.01783
0.04842 0.03201 0.05516 0.08008 0.22650 1.146 0.296 1237.370 0.01785
0.04849 0.03206 0.05524 0.08019 0.22760 1.147 0.296 1237.400 0.01788
0.04856 0.03210 0.05532 0.08030 0.22871 1.149 0.296 1237.430 0.01790
0.04862 0.03215 0.05539 0.08041 0.22982 1.150 0.294 1237.460 0.01792
0.04869 0.03219 0.05547 0.08052 0.23093 0.985 0.281 1237.490 0.01795
0.04876 0.03224 0.05555 0.08064 0.23204 1.148 0.296 1237.520 0.01797
0.04883 0.03228 0.05562 0.08075 0.23315 1.026 0.284 1237.550 0.01800
0.04889 0.03233 0.05570 0.08086 0.23426 1.310 0.309 1237.580 0.01802
0.04896 0.03237 0.05578 0.08097 0.23537 1.227 0.302 1237.609 0.01805
0.04903 0.03242 0.05585 0.08108 0.23648 0.945 0.276 1237.639 0.01807
0.04910 0.03246 0.05593 0.08119 0.23759 0.783 0.258 1237.669 0.01810
0.04916 0.03251 0.05601 0.08131 0.23870 1.067 0.287 1237.699 0.01812
0.04923 0.03255 0.05609 0.08142 0.23981 0.903 0.271 1237.729 0.01815
0.04930 0.03259 0.05616 0.08153 0.24092 1.146 0.295 1237.759 0.01817
0.04937 0.03264 0.05624 0.08164 0.24202 1.186 0.298 1237.789 0.01819
0.04943 0.03268 0.05632 0.08175 0.24313 1.180 0.298 1237.819 0.01822
0.04950 0.03273 0.05639 0.08186 0.24424 1.264 0.305 1237.848 0.01824
0.04957 0.03277 0.05647 0.08198 0.24535 0.897 0.271 1237.878 0.01827
0.04964 0.03282 0.05655 0.08209 0.24646 1.261 0.304 1237.908 0.01829
0.04970 0.03286 0.05662 0.08220 0.24757 0.900 0.271 1237.938 0.01832
0.04977 0.03291 0.05670 0.08231 0.24868 1.182 0.298 1237.968 0.01834
0.04984 0.03295 0.05678 0.08242 0.24979 1.140 0.294 1237.998 0.01837
0.04991 0.03300 0.05686 0.08254 0.25090 0.899 0.270 1238.028 0.01839
0.04997 0.03304 0.05693 0.08265 0.25201 0.738 0.254 1238.058 0.01842
0.05004 0.03309 0.05701 0.08276 0.25312 1.101 0.289 1238.087 0.01844
0.05011 0.03313 0.05709 0.08287 0.25423 1.140 0.293 1238.117 0.01847
0.05018 0.03318 0.05716 0.08298 0.25534 1.062 0.285 1238.147 0.01849
0.05024 0.03322 0.05724 0.08309 0.25645 1.021 0.282 1238.177 0.01851
0.05031 0.03327 0.05732 0.08321 0.25756 1.379 0.313 1238.207 0.01854
0.05038 0.03331 0.05740 0.08332 0.25867 1.220 0.300 1238.237 0.01856
0.05045 0.03335 0.05747 0.08343 0.25978 1.018 0.281 1238.267 0.01859
0.05052 0.03340 0.05755 0.08354 0.26089 0.980 0.277 1238.297 0.01861
0.05058 0.03344 0.05763 0.08365 0.26200 0.820 0.261 1238.327 0.01864
0.05065 0.03349 0.05770 0.08377 0.26311 0.778 0.257 1238.356 0.01866
0.05072 0.03353 0.05778 0.08388 0.26422 1.021 0.281 1238.386 0.01869
0.05079 0.03358 0.05786 0.08399 0.26533 1.220 0.299 1238.416 0.01871
0.05085 0.03362 0.05793 0.08410 0.26644 1.340 0.309 1238.446 0.01874
0.05092 0.03367 0.05801 0.08421 0.26755 1.138 0.292 1238.476 0.01876
0.05099 0.03371 0.05809 0.08432 0.26866 1.218 0.298 1238.506 0.01878
0.05106 0.03376 0.05817 0.08444 0.26978 1.255 0.302 1238.536 0.01881
0.05112 0.03380 0.05824 0.08455 0.27089 0.737 0.251 1238.566 0.01883
0.05119 0.03385 0.05832 0.08466 0.27200 1.057 0.284 1238.595 0.01886
0.05126 0.03389 0.05840 0.08477 0.27311 1.296 0.305 1238.625 0.01888
0.05133 0.03394 0.05847 0.08488 0.27422 1.096 0.288 1238.655 0.01891
0.05139 0.03398 0.05855 0.08500 0.27533 1.059 0.284 1238.685 0.01893
0.05146 0.03403 0.05863 0.08511 0.27644 0.976 0.276 1238.715 0.01896
0.05153 0.03407 0.05871 0.08522 0.27755 1.135 0.291 1238.745 0.01898
0.05160 0.03411 0.05878 0.08533 0.27866 0.775 0.256 1238.775 0.01901
0.05167 0.03416 0.05886 0.08544 0.27977 0.777 0.256 1238.805 0.01903
0.05173 0.03420 0.05894 0.08556 0.28088 0.895 0.268 1238.834 0.01905
0.05180 0.03425 0.05901 0.08567 0.28199 0.896 0.268 1238.864 0.01908
0.05187 0.03429 0.05909 0.08578 0.28310 0.857 0.264 1238.894 0.01910
0.05194 0.03434 0.05917 0.08589 0.28422 1.335 0.308 1238.924 0.01913
0.05200 0.03438 0.05925 0.08600 0.28533 0.818 0.259 1238.954 0.01915
0.05207 0.03443 0.05932 0.08612 0.28644 1.052 0.283 1238.984 0.01918
0.05214 0.03447 0.05940 0.08623 0.28755 0.733 0.251 1239.014 0.01920
0.05221 0.03452 0.05948 0.08634 0.28866 0.973 0.275 1239.044 0.01923
0.05227 0.03456 0.05955 0.08645 0.28977 0.982 0.275 1239.073 0.01925
0.05234 0.03461 0.05963 0.08656 0.29088 1.095 0.282 1239.103 0.01928
0.05241 0.03465 0.05971 0.08668 0.29199 1.047 0.277 1239.133 0.01930
0.05248 0.03470 0.05979 0.08679 0.29310 1.183 0.293 1239.163 0.01933
0.05255 0.03474 0.05986 0.08690 0.29422 1.016 0.275 1239.193 0.01935
0.05261 0.03479 0.05994 0.08701 0.29533 1.217 0.296 1239.223 0.01937
0.05268 0.03483 0.06002 0.08712 0.29644 1.608 0.328 1239.253 0.01940
0.05275 0.03488 0.06009 0.08724 0.29755 0.952 0.265 1239.283 0.01942
0.05282 0.03492 0.06017 0.08735 0.29866 1.078 0.282 1239.313 0.01945
0.05288 0.03497 0.06025 0.08746 0.29977 1.125 0.285 1239.342 0.01947
0.05295 0.03501 0.06033 0.08757 0.30089 1.093 0.281 1239.372 0.01950
0.05302 0.03505 0.06040 0.08768 0.30200 1.353 0.304 1239.402 0.01952
0.05309 0.03510 0.06048 0.08780 0.30311 1.201 0.291 1239.432 0.01955
0.05315 0.03514 0.06056 0.08791 0.30422 1.298 0.299 1239.462 0.01957
0.05322 0.03519 0.06063 0.08802 0.30533 1.162 0.292 1239.492 0.01960
0.05329 0.03523 0.06071 0.08813 0.30644 1.084 0.284 1239.522 0.01962
0.05336 0.03528 0.06079 0.08824 0.30756 1.201 0.295 1239.552 0.01964
0.05343 0.03532 0.06087 0.08836 0.30867 1.043 0.281 1239.581 0.01967
0.05349 0.03537 0.06094 0.08847 0.30978 1.123 0.288 1239.611 0.01969
0.05356 0.03541 0.06102 0.08858 0.31089 0.765 0.253 1239.641 0.01972
0.05363 0.03546 0.06110 0.08869 0.31200 0.962 0.269 1239.671 0.01974
0.05370 0.03550 0.06117 0.08880 0.31312 0.884 0.265 1239.701 0.01977
0.05376 0.03555 0.06125 0.08892 0.31423 1.003 0.276 1239.731 0.01979
0.05383 0.03559 0.06133 0.08903 0.31534 0.963 0.272 1239.761 0.01982
0.05390 0.03564 0.06141 0.08914 0.31645 0.999 0.276 1239.791 0.01984
0.05397 0.03568 0.06148 0.08925 0.31756 1.198 0.294 1239.820 0.01987
