x y z dist_scaled dist_frac flux_norm sig_norm wavelength redshift
0.02124 -0.00867 0.05242 0.05723 0.00000 0.898 0.053 1231.237 0.01281
0.02128 -0.00869 0.05253 0.05734 0.00110 0.885 0.052 1231.267 0.01283
0.02132 -0.00871 0.05263 0.05745 0.00220 0.876 0.052 1231.297 0.01285
0.02136 -0.00872 0.05273 0.05756 0.00330 0.919 0.053 1231.326 0.01288
0.02141 -0.00874 0.05283 0.05767 0.00440 0.950 0.054 1231.356 0.01290
0.02145 -0.00876 0.05293 0.05778 0.00550 1.040 0.057 1231.386 0.01293
0.02149 -0.00877 0.05303 0.05789 0.00661 0.874 0.052 1231.416 0.01295
0.02153 -0.00879 0.05314 0.05800 0.00771 0.871 0.052 1231.446 0.01298
0.02157 -0.00881 0.05324 0.05811 0.00881 0.960 0.054 1231.476 0.01300
0.02161 -0.00882 0.05334 0.05822 0.00991 0.970 0.055 1231.506 0.01303
0.02165 -0.00884 0.05344 0.05834 0.01101 0.930 0.054 1231.536 0.01305
0.02169 -0.00886 0.05354 0.05845 0.01211 0.952 0.054 1231.566 0.01308
0.02174 -0.00888 0.05364 0.05856 0.01321 0.936 0.054 1231.595 0.01310
0.02178 -0.00889 0.05375 0.05867 0.01431 0.946 0.054 1231.625 0.01312
0.02182 -0.00891 0.05385 0.05878 0.01541 0.995 0.055 1231.655 0.01315
0.02186 -0.00893 0.05395 0.05889 0.01652 0.919 0.053 1231.685 0.01317
0.02190 -0.00894 0.05405 0.05900 0.01762 1.021 0.056 1231.715 0.01320
0.02194 -0.00896 0.05415 0.05911 0.01872 0.926 0.053 1231.745 0.01322
0.02198 -0.00898 0.05425 0.05922 0.01982 0.969 0.055 1231.775 0.01325
0.02202 -0.00899 0.05436 0.05933 0.02092 0.923 0.053 1231.805 0.01327
0.02206 -0.00901 0.05446 0.05945 0.02202 0.970 0.055 1231.835 0.01330
0.02211 -0.00903 0.05456 0.05956 0.02312 1.025 0.056 1231.864 0.01332
0.02215 -0.00904 0.05466 0.05967 0.02423 0.917 0.053 1231.894 0.01335
0.02219 -0.00906 0.05476 0.05978 0.02533 0.979 0.055 1231.924 0.01337
0.02223 -0.00908 0.05487 0.05989 0.02643 0.966 0.055 1231.954 0.01340
0.02227 -0.00909 0.05497 0.06000 0.02753 1.036 0.057 1231.984 0.01342
0.02231 -0.00911 0.05507 0.06011 0.02863 0.962 0.055 1232.014 0.01344
0.02235 -0.00913 0.05517 0.06022 0.02973 1.007 0.056 1232.044 0.01347
0.02239 -0.00914 0.05527 0.06033 0.03084 0.990 0.055 1232.074 0.01349
0.02244 -0.00916 0.05537 0.06044 0.03194 1.011 0.056 1232.104 0.01352
0.02248 -0.00918 0.05548 0.06056 0.03304 0.866 0.052 1232.134 0.01354
0.02252 -0.00920 0.05558 0.06067 0.03414 1.000 0.056 1232.163 0.01357
0.02256 -0.00921 0.05568 0.06078 0.03524 0.997 0.056 1232.193 0.01359
0.02260 -0.00923 0.05578 0.06089 0.03635 0.983 0.055 1232.223 0.01362
0.02264 -0.00925 0.05588 0.06100 0.03745 1.049 0.057 1232.253 0.01364
0.02268 -0.00926 0.05598 0.06111 0.03855 0.972 0.055 1232.283 0.01367
0.02272 -0.00928 0.05609 0.06122 0.03965 0.963 0.055 1232.313 0.01369
0.02277 -0.00930 0.05619 0.06133 0.04075 1.072 0.058 1232.343 0.01371
0.02281 -0.00931 0.05629 0.06144 0.04186 1.024 0.056 1232.373 0.01374
0.02285 -0.00933 0.05639 0.06156 0.04296 0.904 0.053 1232.403 0.01376
0.02289 -0.00935 0.05649 0.06167 0.04406 1.037 0.058 1232.432 0.01379
0.02293 -0.00936 0.05660 0.06178 0.04516 1.008 0.056 1232.462 0.01381
0.02297 -0.00938 0.05670 0.06189 0.04627 1.062 0.059 1232.492 0.01384
0.02301 -0.00940 0.05680 0.06200 0.04737 0.888 0.052 1232.522 0.01386
0.02305 -0.00941 0.05690 0.06211 0.04847 1.073 0.059 1232.552 0.01389
0.02310 -0.00943 0.05700 0.06222 0.04957 1.044 0.057 1232.582 0.01391
0.02314 -0.00945 0.05710 0.06233 0.05068 1.048 0.057 1232.612 0.01394
0.02318 -0.00946 0.05721 0.06244 0.05178 0.886 0.052 1232.642 0.01396
0.02322 -0.00948 0.05731 0.06256 0.05288 0.956 0.054 1232.672 0.01399
0.02326 -0.00950 0.05741 0.06267 0.05398 1.031 0.057 1232.701 0.01401
0.02330 -0.00952 0.05751 0.06278 0.05509 1.029 0.057 1232.731 0.01403
0.02334 -0.00953 0.05761 0.06289 0.05619 0.940 0.054 1232.761 0.01406
0.02338 -0.00955 0.05772 0.06300 0.05729 0.929 0.054 1232.791 0.01408
0.02343 -0.00957 0.05782 0.06311 0.05840 0.938 0.054 1232.821 0.01411
0.02347 -0.00958 0.05792 0.06322 0.05950 0.990 0.055 1232.851 0.01413
0.02351 -0.00960 0.05802 0.06333 0.06060 0.980 0.055 1232.881 0.01416
0.02355 -0.00962 0.05812 0.06344 0.06170 0.926 0.054 1232.911 0.01418
0.02359 -0.00963 0.05822 0.06356 0.06281 1.008 0.056 1232.941 0.01421
0.02363 -0.00965 0.05833 0.06367 0.06391 1.080 0.058 1232.970 0.01423
0.02367 -0.00967 0.05843 0.06378 0.06501 1.070 0.058 1233.000 0.01426
0.02371 -0.00968 0.05853 0.06389 0.06612 0.991 0.056 1233.030 0.01428
0.02376 -0.00970 0.05863 0.06400 0.06722 1.086 0.058 1233.060 0.01431
0.02380 -0.00972 0.05873 0.06411 0.06832 0.976 0.055 1233.090 0.01433
0.02384 -0.00973 0.05884 0.06422 0.06943 1.053 0.057 1233.120 0.01435
0.02388 -0.00975 0.05894 0.06433 0.07053 1.088 0.058 1233.150 0.01438
0.02392 -0.00977 0.05904 0.06445 0.07163 1.090 0.058 1233.180 0.01440
0.02396 -0.00978 0.05914 0.06456 0.07274 1.001 0.056 1233.210 0.01443
0.02400 -0.00980 0.05924 0.06467 0.07384 0.921 0.054 1233.240 0.01445
0.02404 -0.00982 0.05934 0.06478 0.07494 0.975 0.055 1233.269 0.01448
0.02409 -0.00984 0.05945 0.06489 0.07605 0.976 0.055 1233.299 0.01450
0.02413 -0.00985 0.05955 0.06500 0.07715 1.011 0.056 1233.329 0.01453
0.02417 -0.00987 0.05965 0.06511 0.07825 1.078 0.058 1233.359 0.01455
0.02421 -0.00989 0.05975 0.06522 0.07936 0.994 0.056 1233.389 0.01458
0.02425 -0.00990 0.05985 0.06534 0.08046 0.951 0.054 1233.419 0.01460
0.02429 -0.00992 0.05996 0.06545 0.08156 1.066 0.058 1233.449 0.01462
0.02433 -0.00994 0.06006 0.06556 0.08267 0.979 0.055 1233.479 0.01465
0.02437 -0.00995 0.06016 0.06567 0.08377 1.057 0.057 1233.509 0.01467
0.02442 -0.00997 0.06026 0.06578 0.08488 1.019 0.056 1233.538 0.01470
0.02446 -0.00999 0.06036 0.06589 0.08598 0.873 0.052 1233.568 0.01472
0.02450 -0.01000 0.06047 0.06600 0.08708 0.895 0.053 1233.598 0.01475
0.02454 -0.01002 0.06057 0.06611 0.08819 1.088 0.058 1233.628 0.01477
0.02458 -0.01004 0.06067 0.06623 0.08929 1.113 0.059 1233.658 0.01480
0.02462 -0.01005 0.06077 0.06634 0.09040 1.101 0.059 1233.688 0.01482
0.02466 -0.01007 0.06087 0.06645 0.09150 1.020 0.056 1233.718 0.01485
0.02471 -0.01009 0.06098 0.06656 0.09260 1.029 0.057 1233.748 0.01487
0.02475 -0.01011 0.06108 0.06667 0.09371 0.908 0.053 1233.778 0.01490
0.02479 -0.01012 0.06118 0.06678 0.09481 0.942 0.054 1233.807 0.01492
0.02483 -0.01014 0.06128 0.06689 0.09592 1.004 0.056 1233.837 0.01494
0.02487 -0.01016 0.06138 0.06700 0.09702 0.961 0.055 1233.867 0.01497
0.02491 -0.01017 0.06149 0.06712 0.09812 1.048 0.057 1233.897 0.01499
0.02495 -0.01019 0.06159 0.06723 0.09923 1.004 0.056 1233.927 0.01502
0.02499 -0.01021 0.06169 0.06734 0.10033 0.805 0.050 1233.957 0.01504
0.02504 -0.01022 0.06179 0.06745 0.10144 0.902 0.053 1233.987 0.01507
0.02508 -0.01024 0.06189 0.06756 0.10254 1.007 0.056 1234.017 0.01509
0.02512 -0.01026 0.06200 0.06767 0.10365 1.045 0.057 1234.047 0.01512
0.02516 -0.01027 0.06210 0.06778 0.10475 0.970 0.055 1234.077 0.01514
0.02520 -0.01029 0.06220 0.06790 0.10586 0.974 0.055 1234.106 0.01517
0.02524 -0.01031 0.06230 0.06801 0.10696 0.952 0.054 1234.136 0.01519
0.02528 -0.01032 0.06240 0.06812 0.10806 0.884 0.052 1234.166 0.01521
0.02533 -0.01034 0.06251 0.06823 0.10917 0.999 0.056 1234.196 0.01524
0.02537 -0.01036 0.06261 0.06834 0.11027 1.068 0.058 1234.226 0.01526
0.02541 -0.01038 0.06271 0.06845 0.11138 1.037 0.057 1234.256 0.01529
0.02545 -0.01039 0.06281 0.06856 0.11248 0.972 0.055 1234.286 0.01531
0.02549 -0.01041 0.06291 0.06867 0.11359 1.015 0.056 1234.316 0.01534
0.02553 -0.01043 0.06302 0.06879 0.11469 1.015 0.056 1234.346 0.01536
0.02557 -0.01044 0.06312 0.06890 0.11580 0.996 0.056 1234.375 0.01539
0.02561 -0.01046 0.06322 0.06901 0.11690 0.920 0.054 1234.405 0.01541
0.02566 -0.01048 0.06332 0.06912 0.11801 1.036 0.057 1234.435 0.01544
0.02570 -0.01049 0.06342 0.06923 0.11911 0.940 0.054 1234.465 0.01546
0.02574 -0.01051 0.06353 0.06934 0.12022 1.002 0.056 1234.495 0.01549
0.02578 -0.01053 0.06363 0.06945 0.12132 1.061 0.058 1234.525 0.01551
0.02582 -0.01054 0.06373 0.06957 0.12243 0.977 0.055 1234.555 0.01553
0.02586 -0.01056 0.06383 0.06968 0.12353 1.065 0.058 1234.585 0.01556
0.02590 -0.01058 0.06393 0.06979 0.12464 0.911 0.053 1234.615 0.01558
0.02595 -0.01059 0.06404 0.06990 0.12574 1.045 0.057 1234.644 0.01561
0.02599 -0.01061 0.06414 0.07001 0.12685 1.033 0.057 1234.674 0.01563
0.02603 -0.01063 0.06424 0.07012 0.12796 0.986 0.055 1234.704 0.01566
0.02607 -0.01065 0.06434 0.07023 0.12906 1.086 0.058 1234.734 0.01568
0.02611 -0.01066 0.06444 0.07035 0.13017 0.940 0.054 1234.764 0.01571
0.02615 -0.01068 0.06455 0.07046 0.13127 0.947 0.054 1234.794 0.01573
0.02619 -0.01070 0.06465 0.07057 0.13238 0.922 0.054 1234.824 0.01576
0.02623 -0.01071 0.06475 0.07068 0.13348 1.015 0.056 1234.854 0.01578
0.02628 -0.01073 0.06485 0.07079 0.13459 0.907 0.053 1234.884 0.01580
0.02632 -0.01075 0.06495 0.07090 0.13569 0.969 0.055 1234.913 0.01583
0.02636 -0.01076 0.06506 0.07101 0.13680 0.937 0.054 1234.943 0.01585
0.02640 -0.01078 0.06516 0.07113 0.13791 0.988 0.056 1234.973 0.01588
0.02644 -0.01080 0.06526 0.07124 0.13901 0.984 0.055 1235.003 0.01590
0.02648 -0.01081 0.06536 0.07135 0.14012 0.773 0.049 1235.033 0.01593
0.02652 -0.01083 0.06547 0.07146 0.14122 0.826 0.051 1235.063 0.01595
0.02657 -0.01085 0.06557 0.07157 0.14233 0.698 0.047 1235.093 0.01598
0.02661 -0.01086 0.06567 0.07168 0.14343 0.723 0.047 1235.123 0.01600
0.02665 -0.01088 0.06577 0.07179 0.14454 0.670 0.046 1235.153 0.01603
0.02669 -0.01090 0.06587 0.07191 0.14565 0.580 0.043 1235.183 0.01605
0.02673 -0.01092 0.06598 0.07202 0.14675 0.617 0.044 1235.212 0.01608
0.02677 -0.01093 0.06608 0.07213 0.14786 0.717 0.047 1235.242 0.01610
0.02681 -0.01095 0.06618 0.07224 0.14897 0.611 0.044 1235.272 0.01612
0.02686 -0.01097 0.06628 0.07235 0.15007 0.567 0.042 1235.302 0.01615
0.02690 -0.01098 0.06638 0.07246 0.15118 0.680 0.046 1235.332 0.01617
0.02694 -0.01100 0.06649 0.07257 0.15228 0.661 0.045 1235.362 0.01620
0.02698 -0.01102 0.06659 0.07269 0.15339 0.832 0.051 1235.392 0.01622
0.02702 -0.01103 0.06669 0.07280 0.15450 0.845 0.051 1235.422 0.01625
0.02706 -0.01105 0.06679 0.07291 0.15560 0.801 0.050 1235.452 0.01627
0.02710 -0.01107 0.06690 0.07302 0.15671 0.957 0.055 1235.481 0.01630
0.02715 -0.01108 0.06700 0.07313 0.15782 0.945 0.054 1235.511 0.01632
0.02719 -0.01110 0.06710 0.07324 0.15892 0.964 0.055 1235.541 0.01635
0.02723 -0.01112 0.06720 0.07336 0.16003 1.038 0.057 1235.571 0.01637
0.02727 -0.01114 0.06730 0.07347 0.16114 0.992 0.056 1235.601 0.01640
0.02731 -0.01115 0.06741 0.07358 0.16224 0.998 0.056 1235.631 0.01642
0.02735 -0.01117 0.06751 0.07369 0.16335 0.893 0.053 1235.661 0.01644
0.02739 -0.01119 0.06761 0.07380 0.16446 0.912 0.053 1235.691 0.01647
0.02743 -0.01120 0.06771 0.07391 0.16556 0.957 0.055 1235.721 0.01649
0.02748 -0.01122 0.06781 0.07402 0.16667 0.960 0.055 1235.750 0.01652
0.02752 -0.01124 0.06792 0.07414 0.16778 0.985 0.055 1235.780 0.01654
0.02756 -0.01125 0.06802 0.07425 0.16888 0.939 0.054 1235.810 0.01657
0.02760 -0.01127 0.06812 0.07436 0.16999 0.983 0.055 1235.840 0.01659
0.02764 -0.01129 0.06822 0.07447 0.17110 0.945 0.054 1235.870 0.01662
0.02768 -0.01130 0.06833 0.07458 0.17220 0.955 0.055 1235.900 0.01664
0.02772 -0.01132 0.06843 0.07469 0.17331 1.003 0.056 1235.930 0.01667
0.02777 -0.01134 0.06853 0.07481 0.17442 1.030 0.057 1235.960 0.01669
0.02781 -0.01136 0.06863 0.07492 0.17552 1.038 0.057 1235.990 0.01671
0.02785 -0.01137 0.06873 0.07503 0.17663 1.152 0.060 1236.020 0.01674
0.02789 -0.01139 0.06884 0.07514 0.17774 1.065 0.058 1236.049 0.01676
0.02793 -0.01141 0.06894 0.07525 0.17885 1.039 0.057 1236.079 0.01679
0.02797 -0.01142 0.06904 0.07536 0.17995 1.017 0.056 1236.109 0.01681
0.02801 -0.01144 0.06914 0.07548 0.18106 0.997 0.056 1236.139 0.01684
0.02806 -0.01146 0.06925 0.07559 0.18217 1.048 0.057 1236.169 0.01686
0.02810 -0.01147 0.06935 0.07570 0.18328 0.911 0.053 1236.199 0.01689
0.02814 -0.01149 0.06945 0.07581 0.18438 1.020 0.056 1236.229 0.01691
0.02818 -0.01151 0.06955 0.07592 0.18549 0.983 0.055 1236.259 0.01694
0.02822 -0.01152 0.06966 0.07603 0.18660 0.962 0.055 1236.289 0.01696
0.02826 -0.01154 0.06976 0.07615 0.18771 0.932 0.054 1236.318 0.01699
0.02830 -0.01156 0.06986 0.07626 0.18881 1.063 0.058 1236.348 0.01701
0.02835 -0.01158 0.06996 0.07637 0.18992 0.980 0.055 1236.378 0.01703
0.02839 -0.01159 0.07006 0.07648 0.19103 1.104 0.059 1236.408 0.01706
0.02843 -0.01161 0.07017 0.07659 0.19214 0.958 0.055 1236.438 0.01708
0.02847 -0.01163 0.07027 0.07670 0.19324 1.102 0.059 1236.468 0.01711
0.02851 -0.01164 0.07037 0.07682 0.19435 1.012 0.056 1236.498 0.01713
0.02855 -0.01166 0.07047 0.07693 0.19546 1.040 0.057 1236.528 0.01716
0.02859 -0.01168 0.07058 0.07704 0.19657 0.962 0.055 1236.558 0.01718
0.02864 -0.01169 0.07068 0.07715 0.19767 1.061 0.057 1236.587 0.01721
0.02868 -0.01171 0.07078 0.07726 0.19878 0.984 0.055 1236.617 0.01723
0.02872 -0.01173 0.07088 0.07737 0.19989 0.953 0.054 1236.647 0.01726
0.02876 -0.01174 0.07098 0.07749 0.20100 1.039 0.057 1236.677 0.01728
0.02880 -0.01176 0.07109 0.07760 0.20211 0.974 0.055 1236.707 0.01730
0.02884 -0.01178 0.07119 0.07771 0.20321 0.970 0.055 1236.737 0.01733
0.02889 -0.01180 0.07129 0.07782 0.20432 1.027 0.057 1236.767 0.01735
0.02893 -0.01181 0.07139 0.07793 0.20543 1.005 0.056 1236.797 0.01738
0.02897 -0.01183 0.07150 0.07804 0.20654 1.011 0.056 1236.827 0.01740
0.02901 -0.01185 0.07160 0.07816 0.20765 0.962 0.055 1236.856 0.01743
0.02905 -0.01186 0.07170 0.07827 0.20876 0.918 0.053 1236.886 0.01745
0.02909 -0.01188 0.07180 0.07838 0.20986 1.011 0.056 1236.916 0.01748
0.02913 -0.01190 0.07191 0.07849 0.21097 0.965 0.055 1236.946 0.01750
0.02918 -0.01191 0.07201 0.07860 0.21208 1.055 0.057 1236.976 0.01753
0.02922 -0.01193 0.07211 0.07871 0.21319 1.098 0.058 1237.006 0.01755
0.02926 -0.01195 0.07221 0.07883 0.21430 1.046 0.057 1237.036 0.01758
0.02930 -0.01196 0.07232 0.07894 0.21541 0.946 0.054 1237.066 0.01760
0.02934 -0.01198 0.07242 0.07905 0.21652 0.996 0.056 1237.096 0.01762
0.02938 -0.01200 0.07252 0.07916 0.21762 1.020 0.056 1237.126 0.01765
0.02942 -0.01202 0.07262 0.07927 0.21873 1.008 0.056 1237.155 0.01767
0.02947 -0.01203 0.07272 0.07938 0.21984 1.004 0.056 1237.185 0.01770
0.02951 -0.01205 0.07283 0.07950 0.22095 0.999 0.056 1237.215 0.01772
0.02955 -0.01207 0.07293 0.07961 0.22206 1.033 0.057 1237.245 0.01775
0.02959 -0.01208 0.07303 0.07972 0.22317 0.969 0.055 1237.275 0.01777
0.02963 -0.01210 0.07313 0.07983 0.22428 0.958 0.055 1237.305 0.01780
0.02967 -0.01212 0.07324 0.07994 0.22539 1.018 0.056 1237.335 0.01782
0.02971 -0.01213 0.07334 0.08005 0.22649 1.004 0.056 1237.365 0.01785
0.02976 -0.01215 0.07344 0.08017 0.22760 1.054 0.057 1237.395 0.01787
0.02980 -0.01217 0.07354 0.08028 0.22871 0.984 0.055 1237.424 0.01790
0.02984 -0.01218 0.07365 0.08039 0.22982 1.013 0.056 1237.454 0.01792
0.02988 -0.01220 0.07375 0.08050 0.23093 0.927 0.054 1237.484 0.01794
0.02992 -0.01222 0.07385 0.08061 0.23204 1.011 0.056 1237.514 0.01797
0.02996 -0.01224 0.07395 0.08073 0.23315 1.009 0.056 1237.544 0.01799
0.03001 -0.01225 0.07406 0.08084 0.23426 1.043 0.057 1237.574 0.01802
0.03005 -0.01227 0.07416 0.08095 0.23537 0.989 0.055 1237.604 0.01804
0.03009 -0.01229 0.07426 0.08106 0.23648 1.139 0.059 1237.634 0.01807
0.03013 -0.01230 0.07436 0.08117 0.23759 0.999 0.056 1237.664 0.01809
0.03017 -0.01232 0.07447 0.08128 0.23870 1.061 0.057 1237.693 0.01812
0.03021 -0.01234 0.07457 0.08140 0.23980 0.929 0.054 1237.723 0.01814
0.03025 -0.01235 0.07467 0.08151 0.24091 1.080 0.058 1237.753 0.01817
0.03030 -0.01237 0.07477 0.08162 0.24202 0.999 0.056 1237.783 0.01819
0.03034 -0.01239 0.07488 0.08173 0.24313 0.965 0.055 1237.813 0.01821
0.03038 -0.01241 0.07498 0.08184 0.24424 0.933 0.054 1237.843 0.01824
0.03042 -0.01242 0.07508 0.08196 0.24535 0.983 0.055 1237.873 0.01826
0.03046 -0.01244 0.07518 0.08207 0.24646 1.048 0.057 1237.903 0.01829
0.03050 -0.01246 0.07529 0.08218 0.24757 0.998 0.056 1237.933 0.01831
0.03054 -0.01247 0.07539 0.08229 0.24868 0.995 0.056 1237.963 0.01834
0.03059 -0.01249 0.07549 0.08240 0.24979 1.051 0.057 1237.992 0.01836
0.03063 -0.01251 0.07559 0.08252 0.25090 0.985 0.055 1238.022 0.01839
0.03067 -0.01252 0.07570 0.08263 0.25201 0.948 0.054 1238.052 0.01841
0.03071 -0.01254 0.07580 0.08274 0.25312 1.053 0.057 1238.082 0.01844
0.03075 -0.01256 0.07590 0.08285 0.25423 1.016 0.056 1238.112 0.01846
0.03079 -0.01257 0.07600 0.08296 0.25534 1.073 0.058 1238.142 0.01849
0.03084 -0.01259 0.07611 0.08307 0.25645 1.034 0.057 1238.172 0.01851
0.03088 -0.01261 0.07621 0.08319 0.25756 1.026 0.056 1238.202 0.01853
0.03092 -0.01263 0.07631 0.08330 0.25867 0.988 0.055 1238.232 0.01856
0.03096 -0.01264 0.07641 0.08341 0.25978 0.962 0.055 1238.261 0.01858
0.03100 -0.01266 0.07652 0.08352 0.26089 0.919 0.053 1238.291 0.01861
0.03104 -0.01268 0.07662 0.08363 0.26200 0.981 0.055 1238.321 0.01863
0.03108 -0.01269 0.07672 0.08375 0.26311 1.122 0.059 1238.351 0.01866
0.03113 -0.01271 0.07682 0.08386 0.26422 0.895 0.053 1238.381 0.01868
0.03117 -0.01273 0.07693 0.08397 0.26533 0.922 0.053 1238.411 0.01871
0.03121 -0.01274 0.07703 0.08408 0.26644 0.949 0.054 1238.441 0.01873
0.03125 -0.01276 0.07713 0.08419 0.26755 1.027 0.056 1238.471 0.01876
0.03129 -0.01278 0.07723 0.08431 0.26866 1.052 0.057 1238.501 0.01878
0.03133 -0.01280 0.07734 0.08442 0.26977 1.081 0.058 1238.530 0.01880
0.03138 -0.01281 0.07744 0.08453 0.27088 1.021 0.056 1238.560 0.01883
0.03142 -0.01283 0.07754 0.08464 0.27199 0.869 0.052 1238.590 0.01885
0.03146 -0.01285 0.07764 0.08475 0.27311 0.884 0.052 1238.620 0.01888
0.03150 -0.01286 0.07775 0.08487 0.27422 0.919 0.053 1238.650 0.01890
0.03154 -0.01288 0.07785 0.08498 0.27533 0.959 0.054 1238.680 0.01893
0.03158 -0.01290 0.07795 0.08509 0.27644 0.835 0.051 1238.710 0.01895
0.03162 -0.01291 0.07805 0.08520 0.27755 0.887 0.052 1238.740 0.01898
0.03167 -0.01293 0.07816 0.08531 0.27866 0.896 0.053 1238.770 0.01900
0.03171 -0.01295 0.07826 0.08542 0.27977 0.862 0.052 1238.799 0.01903
0.03175 -0.01296 0.07836 0.08554 0.28088 0.803 0.050 1238.829 0.01905
0.03179 -0.01298 0.07846 0.08565 0.28199 0.933 0.054 1238.859 0.01908
0.03183 -0.01300 0.07857 0.08576 0.28310 0.936 0.054 1238.889 0.01910
0.03187 -0.01302 0.07867 0.08587 0.28421 0.856 0.051 1238.919 0.01912
0.03192 -0.01303 0.07877 0.08598 0.28532 0.927 0.054 1238.949 0.01915
0.03196 -0.01305 0.07887 0.08610 0.28644 0.893 0.053 1238.979 0.01917
0.03200 -0.01307 0.07898 0.08621 0.28755 0.865 0.052 1239.009 0.01920
0.03204 -0.01308 0.07908 0.08632 0.28866 0.822 0.050 1239.039 0.01922
0.03208 -0.01310 0.07918 0.08643 0.28977 0.847 0.051 1239.069 0.01925
0.03212 -0.01312 0.07928 0.08654 0.29088 0.835 0.051 1239.098 0.01927
0.03217 -0.01313 0.07939 0.08666 0.29199 0.864 0.052 1239.128 0.01930
0.03221 -0.01315 0.07949 0.08677 0.29310 0.866 0.052 1239.158 0.01932
0.03225 -0.01317 0.07959 0.08688 0.29421 0.929 0.054 1239.188 0.01935
0.03229 -0.01319 0.07969 0.08699 0.29533 0.975 0.055 1239.218 0.01937
0.03233 -0.01320 0.07980 0.08710 0.29644 1.009 0.056 1239.248 0.01939
0.03237 -0.01322 0.07990 0.08722 0.29755 0.943 0.054 1239.278 0.01942
0.03241 -0.01324 0.08000 0.08733 0.29866 1.002 0.056 1239.308 0.01944
0.03246 -0.01325 0.08011 0.08744 0.29977 1.035 0.057 1239.338 0.01947
0.03250 -0.01327 0.08021 0.08755 0.30088 1.076 0.058 1239.367 0.01949
0.03254 -0.01329 0.08031 0.08767 0.30200 0.941 0.054 1239.397 0.01952
0.03258 -0.01330 0.08041 0.08778 0.30311 0.934 0.054 1239.427 0.01954
0.03262 -0.01332 0.08052 0.08789 0.30422 0.948 0.054 1239.457 0.01957
0.03266 -0.01334 0.08062 0.08800 0.30533 0.986 0.055 1239.487 0.01959
0.03271 -0.01336 0.08072 0.08811 0.30644 0.917 0.053 1239.517 0.01962
0.03275 -0.01337 0.08082 0.08823 0.30755 1.054 0.057 1239.547 0.01964
0.03279 -0.01339 0.08093 0.08834 0.30867 1.022 0.056 1239.577 0.01967
0.03283 -0.01341 0.08103 0.08845 0.30978 1.065 0.057 1239.607 0.01969
0.03287 -0.01342 0.08113 0.08856 0.31089 1.033 0.056 1239.636 0.01971
0.03291 -0.01344 0.08123 0.08867 0.31200 1.138 0.059 1239.666 0.01974
0.03296 -0.01346 0.08134 0.08879 0.31311 0.971 0.055 1239.696 0.01976
