x y z dist_scaled dist_frac flux_norm sig_norm wavelength redshift
-0.03965 -0.01150 0.03968 0.05726 0.00000 0.803 0.191 1231.245 0.01281
-0.03972 -0.01152 0.03975 0.05737 0.00110 0.700 0.182 1231.275 0.01284
-0.03980 -0.01154 0.03983 0.05748 0.00220 0.827 0.195 1231.305 0.01286
-0.03988 -0.01157 0.03991 0.05759 0.00330 0.623 0.174 1231.335 0.01289
-0.03995 -0.01159 0.03998 0.05770 0.00440 0.546 0.166 1231.365 0.01291
-0.04003 -0.01161 0.04006 0.05781 0.00550 0.901 0.201 1231.395 0.01293
-0.04011 -0.01163 0.04014 0.05792 0.00661 0.800 0.192 1231.425 0.01296
-0.04019 -0.01166 0.04021 0.05803 0.00771 0.774 0.189 1231.454 0.01298
-0.04026 -0.01168 0.04029 0.05814 0.00881 0.924 0.200 1231.484 0.01301
-0.04034 -0.01170 0.04037 0.05826 0.00991 0.820 0.220 1231.514 0.01303
-0.04042 -0.01172 0.04044 0.05837 0.01101 0.578 0.211 1231.544 0.01306
-0.04049 -0.01175 0.04052 0.05848 0.01211 0.578 0.211 1231.574 0.01308
-0.04057 -0.01177 0.04060 0.05859 0.01321 0.579 0.210 1231.604 0.01311
-0.04065 -0.01179 0.04068 0.05870 0.01431 1.017 0.254 1231.634 0.01313
-0.04072 -0.01181 0.04075 0.05881 0.01541 0.848 0.238 1231.664 0.01316
-0.04080 -0.01183 0.04083 0.05892 0.01652 0.746 0.228 1231.693 0.01318
-0.04088 -0.01186 0.04091 0.05903 0.01762 0.779 0.231 1231.723 0.01321
-0.04095 -0.01188 0.04098 0.05914 0.01872 1.080 0.258 1231.753 0.01323
-0.04103 -0.01190 0.04106 0.05925 0.01982 0.776 0.230 1231.783 0.01325
-0.04111 -0.01192 0.04114 0.05936 0.02092 0.912 0.243 1231.813 0.01328
-0.04118 -0.01195 0.04121 0.05948 0.02202 1.080 0.258 1231.843 0.01330
-0.04126 -0.01197 0.04129 0.05959 0.02312 1.245 0.271 1231.873 0.01333
-0.04134 -0.01199 0.04137 0.05970 0.02423 0.741 0.226 1231.903 0.01335
-0.04141 -0.01201 0.04144 0.05981 0.02533 1.009 0.252 1231.932 0.01338
-0.04149 -0.01204 0.04152 0.05992 0.02643 1.007 0.251 1231.962 0.01340
-0.04157 -0.01206 0.04160 0.06003 0.02753 1.173 0.265 1231.992 0.01343
-0.04165 -0.01208 0.04167 0.06014 0.02863 0.782 0.228 1232.022 0.01345
-0.04172 -0.01210 0.04175 0.06025 0.02973 1.095 0.254 1232.052 0.01348
-0.04180 -0.01212 0.04183 0.06036 0.03084 0.958 0.241 1232.082 0.01350
-0.04188 -0.01215 0.04191 0.06047 0.03194 0.812 0.229 1232.112 0.01352
-0.04195 -0.01217 0.04198 0.06059 0.03304 0.775 0.225 1232.142 0.01355
-0.04203 -0.01219 0.04206 0.06070 0.03414 0.665 0.214 1232.171 0.01357
-0.04211 -0.01221 0.04214 0.06081 0.03524 0.711 0.218 1232.201 0.01360
-0.04218 -0.01224 0.04221 0.06092 0.03635 0.913 0.238 1232.231 0.01362
-0.04226 -0.01226 0.04229 0.06103 0.03745 0.785 0.224 1232.261 0.01365
-0.04234 -0.01228 0.04237 0.06114 0.03855 1.261 0.266 1232.291 0.01367
-0.04241 -0.01230 0.04244 0.06125 0.03965 1.014 0.246 1232.321 0.01370
-0.04249 -0.01233 0.04252 0.06136 0.04075 0.837 0.233 1232.351 0.01372
-0.04257 -0.01235 0.04260 0.06147 0.04186 1.126 0.257 1232.381 0.01375
-0.04264 -0.01237 0.04268 0.06159 0.04296 0.682 0.213 1232.411 0.01377
-0.04272 -0.01239 0.04275 0.06170 0.04406 1.052 0.251 1232.440 0.01380
-0.04280 -0.01241 0.04283 0.06181 0.04516 1.004 0.245 1232.470 0.01382
-0.04288 -0.01244 0.04291 0.06192 0.04627 1.074 0.253 1232.500 0.01384
-0.04295 -0.01246 0.04298 0.06203 0.04737 0.658 0.177 1232.530 0.01387
-0.04303 -0.01248 0.04306 0.06214 0.04847 1.340 0.225 1232.560 0.01389
-0.04311 -0.01250 0.04314 0.06225 0.04957 0.846 0.188 1232.590 0.01392
-0.04318 -0.01253 0.04321 0.06236 0.05068 0.748 0.179 1232.620 0.01394
-0.04326 -0.01255 0.04329 0.06247 0.05178 1.019 0.204 1232.650 0.01397
-0.04334 -0.01257 0.04337 0.06258 0.05288 0.710 0.181 1232.679 0.01399
-0.04341 -0.01259 0.04344 0.06270 0.05398 1.231 0.219 1232.709 0.01402
-0.04349 -0.01262 0.04352 0.06281 0.05509 0.985 0.203 1232.739 0.01404
-0.04357 -0.01264 0.04360 0.06292 0.05619 1.066 0.209 1232.769 0.01407
-0.04364 -0.01266 0.04368 0.06303 0.05729 0.921 0.195 1232.799 0.01409
-0.04372 -0.01268 0.04375 0.06314 0.05840 0.794 0.184 1232.829 0.01411
-0.04380 -0.01270 0.04383 0.06325 0.05950 1.027 0.205 1232.859 0.01414
-0.04388 -0.01273 0.04391 0.06336 0.06060 0.972 0.201 1232.889 0.01416
-0.04395 -0.01275 0.04398 0.06347 0.06170 0.977 0.200 1232.918 0.01419
-0.04403 -0.01277 0.04406 0.06358 0.06281 1.049 0.206 1232.948 0.01421
-0.04411 -0.01279 0.04414 0.06370 0.06391 1.235 0.218 1232.978 0.01424
-0.04418 -0.01282 0.04421 0.06381 0.06501 1.032 0.204 1233.008 0.01426
-0.04426 -0.01284 0.04429 0.06392 0.06612 0.943 0.198 1233.038 0.01429
-0.04434 -0.01286 0.04437 0.06403 0.06722 1.095 0.207 1233.068 0.01431
-0.04441 -0.01288 0.04445 0.06414 0.06832 0.997 0.202 1233.098 0.01434
-0.04449 -0.01291 0.04452 0.06425 0.06943 1.040 0.207 1233.128 0.01436
-0.04457 -0.01293 0.04460 0.06436 0.07053 1.122 0.210 1233.157 0.01439
-0.04464 -0.01295 0.04468 0.06447 0.07163 1.202 0.217 1233.187 0.01441
-0.04472 -0.01297 0.04475 0.06459 0.07274 1.180 0.215 1233.217 0.01443
-0.04480 -0.01299 0.04483 0.06470 0.07384 0.976 0.197 1233.247 0.01446
-0.04488 -0.01302 0.04491 0.06481 0.07494 0.854 0.187 1233.277 0.01448
-0.04495 -0.01304 0.04499 0.06492 0.07605 1.022 0.201 1233.307 0.01451
-0.04503 -0.01306 0.04506 0.06503 0.07715 0.876 0.189 1233.337 0.01453
-0.04511 -0.01308 0.04514 0.06514 0.07825 0.996 0.199 1233.367 0.01456
-0.04518 -0.01311 0.04522 0.06525 0.07936 1.188 0.213 1233.397 0.01458
-0.04526 -0.01313 0.04529 0.06536 0.08046 0.923 0.192 1233.426 0.01461
-0.04534 -0.01315 0.04537 0.06547 0.08156 0.947 0.194 1233.456 0.01463
-0.04541 -0.01317 0.04545 0.06559 0.08267 0.922 0.193 1233.486 0.01466
-0.04549 -0.01320 0.04552 0.06570 0.08377 1.041 0.201 1233.516 0.01468
-0.04557 -0.01322 0.04560 0.06581 0.08488 0.872 0.188 1233.546 0.01470
-0.04565 -0.01324 0.04568 0.06592 0.08598 0.992 0.198 1233.576 0.01473
-0.04572 -0.01326 0.04576 0.06603 0.08708 1.136 0.208 1233.606 0.01475
-0.04580 -0.01328 0.04583 0.06614 0.08819 0.944 0.194 1233.636 0.01478
-0.04588 -0.01331 0.04591 0.06625 0.08929 1.208 0.213 1233.665 0.01480
-0.04595 -0.01333 0.04599 0.06636 0.09040 0.704 0.173 1233.695 0.01483
-0.04603 -0.01335 0.04606 0.06648 0.09150 1.160 0.210 1233.725 0.01485
-0.04611 -0.01337 0.04614 0.06659 0.09260 0.992 0.197 1233.755 0.01488
-0.04618 -0.01340 0.04622 0.06670 0.09371 0.944 0.193 1233.785 0.01490
-0.04626 -0.01342 0.04630 0.06681 0.09481 1.063 0.202 1233.815 0.01493
-0.04634 -0.01344 0.04637 0.06692 0.09592 1.014 0.199 1233.845 0.01495
-0.04642 -0.01346 0.04645 0.06703 0.09702 1.203 0.212 1233.875 0.01497
-0.04649 -0.01349 0.04653 0.06714 0.09813 0.892 0.189 1233.904 0.01500
-0.04657 -0.01351 0.04660 0.06725 0.09923 1.035 0.200 1233.934 0.01502
-0.04665 -0.01353 0.04668 0.06737 0.10033 1.107 0.205 1233.964 0.01505
-0.04672 -0.01355 0.04676 0.06748 0.10144 1.035 0.200 1233.994 0.01507
-0.04680 -0.01358 0.04683 0.06759 0.10254 1.225 0.214 1234.024 0.01510
-0.04688 -0.01360 0.04691 0.06770 0.10365 1.272 0.217 1234.054 0.01512
-0.04696 -0.01362 0.04699 0.06781 0.10475 1.106 0.205 1234.084 0.01515
-0.04703 -0.01364 0.04707 0.06792 0.10586 1.083 0.203 1234.114 0.01517
-0.04711 -0.01366 0.04714 0.06803 0.10696 0.796 0.180 1234.143 0.01520
-0.04719 -0.01369 0.04722 0.06814 0.10807 0.843 0.184 1234.173 0.01522
-0.04726 -0.01371 0.04730 0.06826 0.10917 1.293 0.218 1234.203 0.01525
-0.04734 -0.01373 0.04737 0.06837 0.11028 1.100 0.204 1234.233 0.01527
-0.04742 -0.01375 0.04745 0.06848 0.11138 1.123 0.206 1234.263 0.01529
-0.04749 -0.01378 0.04753 0.06859 0.11248 1.407 0.226 1234.293 0.01532
-0.04757 -0.01380 0.04761 0.06870 0.11359 1.005 0.197 1234.323 0.01534
-0.04765 -0.01382 0.04768 0.06881 0.11469 0.958 0.193 1234.353 0.01537
-0.04773 -0.01384 0.04776 0.06892 0.11580 0.886 0.187 1234.383 0.01539
-0.04780 -0.01387 0.04784 0.06904 0.11690 1.394 0.243 1234.412 0.01542
-0.04788 -0.01389 0.04791 0.06915 0.11801 1.171 0.257 1234.442 0.01544
-0.04796 -0.01391 0.04799 0.06926 0.11911 1.139 0.255 1234.472 0.01547
-0.04803 -0.01393 0.04807 0.06937 0.12022 0.981 0.241 1234.502 0.01549
-0.04811 -0.01396 0.04815 0.06948 0.12132 0.664 0.211 1234.532 0.01552
-0.04819 -0.01398 0.04822 0.06959 0.12243 1.013 0.244 1234.562 0.01554
-0.04827 -0.01400 0.04830 0.06970 0.12354 0.760 0.221 1234.592 0.01556
-0.04834 -0.01402 0.04838 0.06981 0.12464 0.728 0.217 1234.622 0.01559
-0.04842 -0.01404 0.04845 0.06993 0.12575 0.663 0.211 1234.651 0.01561
-0.04850 -0.01407 0.04853 0.07004 0.12685 0.885 0.232 1234.681 0.01564
-0.04857 -0.01409 0.04861 0.07015 0.12796 0.821 0.226 1234.711 0.01566
-0.04865 -0.01411 0.04869 0.07026 0.12906 0.946 0.238 1234.741 0.01569
-0.04873 -0.01413 0.04876 0.07037 0.13017 1.073 0.248 1234.771 0.01571
-0.04881 -0.01416 0.04884 0.07048 0.13127 0.977 0.240 1234.801 0.01574
-0.04888 -0.01418 0.04892 0.07059 0.13238 0.978 0.240 1234.831 0.01576
-0.04896 -0.01420 0.04900 0.07071 0.13348 1.010 0.243 1234.861 0.01579
-0.04904 -0.01422 0.04907 0.07082 0.13459 1.294 0.265 1234.890 0.01581
-0.04911 -0.01425 0.04915 0.07093 0.13570 0.852 0.228 1234.920 0.01584
-0.04919 -0.01427 0.04923 0.07104 0.13680 1.135 0.253 1234.950 0.01586
-0.04927 -0.01429 0.04930 0.07115 0.13791 1.070 0.248 1234.980 0.01588
-0.04935 -0.01431 0.04938 0.07126 0.13901 0.881 0.231 1235.010 0.01591
-0.04942 -0.01434 0.04946 0.07137 0.14012 1.100 0.249 1235.040 0.01593
-0.04950 -0.01436 0.04954 0.07149 0.14122 1.290 0.264 1235.070 0.01596
-0.04958 -0.01438 0.04961 0.07160 0.14233 1.068 0.247 1235.100 0.01598
-0.04965 -0.01440 0.04969 0.07171 0.14344 1.225 0.259 1235.129 0.01601
-0.04973 -0.01443 0.04977 0.07182 0.14454 0.910 0.233 1235.159 0.01603
-0.04981 -0.01445 0.04984 0.07193 0.14565 0.690 0.213 1235.189 0.01606
-0.04989 -0.01447 0.04992 0.07204 0.14675 0.975 0.238 1235.219 0.01608
-0.04996 -0.01449 0.05000 0.07215 0.14786 1.038 0.244 1235.249 0.01611
-0.05004 -0.01451 0.05008 0.07227 0.14897 1.036 0.244 1235.279 0.01613
-0.05012 -0.01454 0.05015 0.07238 0.15007 0.879 0.230 1235.309 0.01615
-0.05019 -0.01456 0.05023 0.07249 0.15118 1.318 0.265 1235.339 0.01618
-0.05027 -0.01458 0.05031 0.07260 0.15228 0.974 0.238 1235.369 0.01620
-0.05035 -0.01460 0.05038 0.07271 0.15339 0.911 0.233 1235.398 0.01623
-0.05043 -0.01463 0.05046 0.07282 0.15450 1.319 0.266 1235.428 0.01625
-0.05050 -0.01465 0.05054 0.07293 0.15560 1.344 0.220 1235.458 0.01628
-0.05058 -0.01467 0.05062 0.07305 0.15671 1.040 0.199 1235.488 0.01630
-0.05066 -0.01469 0.05069 0.07316 0.15782 1.086 0.201 1235.518 0.01633
-0.05073 -0.01472 0.05077 0.07327 0.15892 0.990 0.194 1235.548 0.01635
-0.05081 -0.01474 0.05085 0.07338 0.16003 0.834 0.184 1235.578 0.01638
-0.05089 -0.01476 0.05093 0.07349 0.16114 0.947 0.193 1235.608 0.01640
-0.05097 -0.01478 0.05100 0.07360 0.16224 1.299 0.216 1235.637 0.01643
-0.05104 -0.01481 0.05108 0.07371 0.16335 0.915 0.189 1235.667 0.01645
-0.05112 -0.01483 0.05116 0.07383 0.16446 1.150 0.207 1235.697 0.01647
-0.05120 -0.01485 0.05123 0.07394 0.16556 0.863 0.188 1235.727 0.01650
-0.05128 -0.01487 0.05131 0.07405 0.16667 0.916 0.191 1235.757 0.01652
-0.05135 -0.01490 0.05139 0.07416 0.16778 1.247 0.213 1235.787 0.01655
-0.05143 -0.01492 0.05147 0.07427 0.16888 1.085 0.201 1235.817 0.01657
-0.05151 -0.01494 0.05154 0.07438 0.16999 1.042 0.200 1235.847 0.01660
-0.05158 -0.01496 0.05162 0.07450 0.17110 0.739 0.174 1235.876 0.01662
-0.05166 -0.01499 0.05170 0.07461 0.17220 0.995 0.196 1235.906 0.01665
-0.05174 -0.01501 0.05178 0.07472 0.17331 1.052 0.199 1235.936 0.01667
-0.05182 -0.01503 0.05185 0.07483 0.17442 0.999 0.196 1235.966 0.01670
-0.05189 -0.01505 0.05193 0.07494 0.17553 0.866 0.185 1235.996 0.01672
-0.05197 -0.01507 0.05201 0.07505 0.17663 1.001 0.196 1236.026 0.01674
-0.05205 -0.01510 0.05208 0.07516 0.17774 0.992 0.194 1236.056 0.01677
-0.05212 -0.01512 0.05216 0.07528 0.17885 1.104 0.204 1236.086 0.01679
-0.05220 -0.01514 0.05224 0.07539 0.17995 1.240 0.212 1236.115 0.01682
-0.05228 -0.01516 0.05232 0.07550 0.18106 0.894 0.189 1236.145 0.01684
-0.05236 -0.01519 0.05239 0.07561 0.18217 0.962 0.191 1236.175 0.01687
-0.05243 -0.01521 0.05247 0.07572 0.18328 1.122 0.202 1236.205 0.01689
-0.05251 -0.01523 0.05255 0.07583 0.18438 1.261 0.212 1236.235 0.01692
-0.05259 -0.01525 0.05263 0.07595 0.18549 1.077 0.200 1236.265 0.01694
-0.05267 -0.01528 0.05270 0.07606 0.18660 1.100 0.204 1236.295 0.01697
-0.05274 -0.01530 0.05278 0.07617 0.18771 0.798 0.179 1236.325 0.01699
-0.05282 -0.01532 0.05286 0.07628 0.18881 0.843 0.180 1236.355 0.01701
-0.05290 -0.01534 0.05294 0.07639 0.18992 1.006 0.194 1236.384 0.01704
-0.05297 -0.01537 0.05301 0.07650 0.19103 1.097 0.200 1236.414 0.01706
-0.05305 -0.01539 0.05309 0.07661 0.19214 0.866 0.183 1236.444 0.01709
-0.05313 -0.01541 0.05317 0.07673 0.19324 0.959 0.190 1236.474 0.01711
-0.05321 -0.01543 0.05324 0.07684 0.19435 1.028 0.197 1236.504 0.01714
-0.05328 -0.01546 0.05332 0.07695 0.19546 0.960 0.193 1236.534 0.01716
-0.05336 -0.01548 0.05340 0.07706 0.19657 0.937 0.193 1236.564 0.01719
-0.05344 -0.01550 0.05348 0.07717 0.19768 1.005 0.196 1236.594 0.01721
-0.05352 -0.01552 0.05355 0.07728 0.19878 1.235 0.210 1236.623 0.01724
-0.05359 -0.01555 0.05363 0.07740 0.19989 1.304 0.214 1236.653 0.01726
-0.05367 -0.01557 0.05371 0.07751 0.20100 0.959 0.195 1236.683 0.01729
-0.05375 -0.01559 0.05379 0.07762 0.20211 1.372 0.220 1236.713 0.01731
-0.05382 -0.01561 0.05386 0.07773 0.20322 0.867 0.188 1236.743 0.01733
-0.05390 -0.01563 0.05394 0.07784 0.20432 0.889 0.188 1236.773 0.01736
-0.05398 -0.01566 0.05402 0.07795 0.20543 1.141 0.203 1236.803 0.01738
-0.05406 -0.01568 0.05410 0.07807 0.20654 0.980 0.193 1236.833 0.01741
-0.05413 -0.01570 0.05417 0.07818 0.20765 0.864 0.184 1236.862 0.01743
-0.05421 -0.01572 0.05425 0.07829 0.20876 0.840 0.180 1236.892 0.01746
-0.05429 -0.01575 0.05433 0.07840 0.20987 0.657 0.168 1236.922 0.01748
-0.05437 -0.01577 0.05440 0.07851 0.21097 0.840 0.182 1236.952 0.01751
-0.05444 -0.01579 0.05448 0.07862 0.21208 0.794 0.178 1236.982 0.01753
-0.05452 -0.01581 0.05456 0.07874 0.21319 1.070 0.199 1237.012 0.01756
-0.05460 -0.01584 0.05464 0.07885 0.21430 0.955 0.194 1237.042 0.01758
-0.05468 -0.01586 0.05471 0.07896 0.21541 1.025 0.199 1237.072 0.01760
-0.05475 -0.01588 0.05479 0.07907 0.21652 1.161 0.206 1237.101 0.01763
-0.05483 -0.01590 0.05487 0.07918 0.21762 1.045 0.196 1237.131 0.01765
-0.05491 -0.01593 0.05495 0.07929 0.21873 0.955 0.194 1237.161 0.01768
-0.05498 -0.01595 0.05502 0.07941 0.21984 1.001 0.196 1237.191 0.01770
-0.05506 -0.01597 0.05510 0.07952 0.22095 0.979 0.196 1237.221 0.01773
-0.05514 -0.01599 0.05518 0.07963 0.22206 1.229 0.210 1237.251 0.01775
-0.05522 -0.01602 0.05526 0.07974 0.22317 0.886 0.188 1237.281 0.01778
-0.05529 -0.01604 0.05533 0.07985 0.22428 0.978 0.195 1237.311 0.01780
-0.05537 -0.01606 0.05541 0.07996 0.22539 1.000 0.197 1237.341 0.01783
-0.05545 -0.01608 0.05549 0.08008 0.22650 1.001 0.197 1237.370 0.01785
-0.05553 -0.01611 0.05557 0.08019 0.22760 1.159 0.205 1237.400 0.01788
-0.05560 -0.01613 0.05564 0.08030 0.22871 0.976 0.194 1237.430 0.01790
-0.05568 -0.01615 0.05572 0.08041 0.22982 1.271 0.213 1237.460 0.01792
-0.05576 -0.01617 0.05580 0.08052 0.23093 0.631 0.167 1237.490 0.01795
-0.05584 -0.01620 0.05588 0.08064 0.23204 1.042 0.197 1237.520 0.01797
-0.05591 -0.01622 0.05595 0.08075 0.23315 0.858 0.181 1237.550 0.01800
-0.05599 -0.01624 0.05603 0.08086 0.23426 1.177 0.205 1237.580 0.01802
-0.05607 -0.01626 0.05611 0.08097 0.23537 1.088 0.200 1237.609 0.01805
-0.05615 -0.01629 0.05619 0.08108 0.23648 1.293 0.213 1237.639 0.01807
-0.05622 -0.01631 0.05626 0.08119 0.23759 1.087 0.198 1237.669 0.01810
-0.05630 -0.01633 0.05634 0.08131 0.23870 1.007 0.197 1237.699 0.01812
-0.05638 -0.01635 0.05642 0.08142 0.23981 1.186 0.208 1237.729 0.01815
-0.05645 -0.01638 0.05650 0.08153 0.24092 1.133 0.205 1237.759 0.01817
-0.05653 -0.01640 0.05657 0.08164 0.24202 0.847 0.197 1237.789 0.01819
-0.05661 -0.01642 0.05665 0.08175 0.24313 1.204 0.208 1237.819 0.01822
-0.05669 -0.01644 0.05673 0.08186 0.24424 1.175 0.221 1237.848 0.01824
-0.05676 -0.01647 0.05681 0.08198 0.24535 1.026 0.196 1237.878 0.01827
-0.05684 -0.01649 0.05688 0.08209 0.24646 0.781 0.177 1237.908 0.01829
-0.05692 -0.01651 0.05696 0.08220 0.24757 1.110 0.203 1237.938 0.01832
-0.05700 -0.01653 0.05704 0.08231 0.24868 0.906 0.186 1237.968 0.01834
-0.05707 -0.01656 0.05711 0.08242 0.24979 1.024 0.196 1237.998 0.01837
-0.05715 -0.01658 0.05719 0.08254 0.25090 1.132 0.203 1238.028 0.01839
-0.05723 -0.01660 0.05727 0.08265 0.25201 1.001 0.194 1238.058 0.01842
-0.05731 -0.01662 0.05735 0.08276 0.25312 0.950 0.191 1238.087 0.01844
-0.05738 -0.01664 0.05742 0.08287 0.25423 0.935 0.187 1238.117 0.01847
-0.05746 -0.01667 0.05750 0.08298 0.25534 1.032 0.196 1238.147 0.01849
-0.05754 -0.01669 0.05758 0.08309 0.25645 1.036 0.196 1238.177 0.01851
-0.05762 -0.01671 0.05766 0.08321 0.25756 1.145 0.204 1238.207 0.01854
-0.05769 -0.01673 0.05773 0.08332 0.25867 0.774 0.177 1238.237 0.01856
-0.05777 -0.01676 0.05781 0.08343 0.25978 0.719 0.173 1238.267 0.01859
-0.05785 -0.01678 0.05789 0.08354 0.26089 0.813 0.180 1238.297 0.01861
-0.05793 -0.01680 0.05797 0.08365 0.26200 1.043 0.197 1238.327 0.01864
-0.05800 -0.01682 0.05804 0.08377 0.26311 0.940 0.187 1238.356 0.01866
-0.05808 -0.01685 0.05812 0.08388 0.26422 0.848 0.180 1238.386 0.01869
-0.05816 -0.01687 0.05820 0.08399 0.26533 0.895 0.183 1238.416 0.01871
-0.05824 -0.01689 0.05828 0.08410 0.26644 0.806 0.176 1238.446 0.01874
-0.05831 -0.01691 0.05836 0.08421 0.26755 0.784 0.174 1238.476 0.01876
-0.05839 -0.01694 0.05843 0.08432 0.26866 0.761 0.172 1238.506 0.01878
-0.05847 -0.01696 0.05851 0.08444 0.26978 0.694 0.168 1238.536 0.01881
-0.05855 -0.01698 0.05859 0.08455 0.27089 0.603 0.162 1238.566 0.01883
-0.05862 -0.01700 0.05867 0.08466 0.27200 0.761 0.172 1238.595 0.01886
-0.05870 -0.01703 0.05874 0.08477 0.27311 0.853 0.182 1238.625 0.01888
-0.05878 -0.01705 0.05882 0.08488 0.27422 0.490 0.153 1238.655 0.01891
-0.05886 -0.01707 0.05890 0.08500 0.27533 0.694 0.168 1238.685 0.01893
-0.05893 -0.01709 0.05898 0.08511 0.27644 0.603 0.158 1238.715 0.01896
-0.05901 -0.01712 0.05905 0.08522 0.27755 0.625 0.159 1238.745 0.01898
-0.05909 -0.01714 0.05913 0.08533 0.27866 0.739 0.174 1238.775 0.01901
-0.05917 -0.01716 0.05921 0.08544 0.27977 1.055 0.195 1238.805 0.01903
-0.05924 -0.01718 0.05929 0.08556 0.28088 0.647 0.163 1238.834 0.01905
-0.05932 -0.01721 0.05936 0.08567 0.28199 1.123 0.200 1238.864 0.01908
-0.05940 -0.01723 0.05944 0.08578 0.28310 0.853 0.183 1238.894 0.01910
-0.05948 -0.01725 0.05952 0.08589 0.28422 1.079 0.198 1238.924 0.01913
-0.05955 -0.01727 0.05960 0.08600 0.28533 0.831 0.183 1238.954 0.01915
-0.05963 -0.01730 0.05967 0.08612 0.28644 0.968 0.193 1238.984 0.01918
-0.05971 -0.01732 0.05975 0.08623 0.28755 1.058 0.198 1239.014 0.01920
-0.05979 -0.01734 0.05983 0.08634 0.28866 0.991 0.195 1239.044 0.01923
-0.05986 -0.01736 0.05991 0.08645 0.28977 1.082 0.202 1239.073 0.01925
-0.05994 -0.01739 0.05998 0.08656 0.29088 0.880 0.186 1239.103 0.01928
-0.06002 -0.01741 0.06006 0.08668 0.29199 0.949 0.192 1239.133 0.01930
-0.06010 -0.01743 0.06014 0.08679 0.29310 1.175 0.208 1239.163 0.01933
-0.06017 -0.01745 0.06022 0.08690 0.29422 0.858 0.184 1239.193 0.01935
-0.06025 -0.01748 0.06029 0.08701 0.29533 1.061 0.200 1239.223 0.01937
-0.06033 -0.01750 0.06037 0.08712 0.29644 0.970 0.193 1239.253 0.01940
-0.06041 -0.01752 0.06045 0.08724 0.29755 0.877 0.186 1239.283 0.01942
-0.06048 -0.01754 0.06053 0.08735 0.29866 1.104 0.203 1239.313 0.01945
-0.06056 -0.01757 0.06060 0.08746 0.29977 0.922 0.190 1239.342 0.01947
-0.06064 -0.01759 0.06068 0.08757 0.30089 0.967 0.193 1239.372 0.01950
-0.06072 -0.01761 0.06076 0.08768 0.30200 1.057 0.200 1239.402 0.01952
-0.06079 -0.01763 0.06084 0.08780 0.30311 1.192 0.207 1239.432 0.01955
-0.06087 -0.01766 0.06091 0.08791 0.30422 0.966 0.193 1239.462 0.01957
-0.06095 -0.01768 0.06099 0.08802 0.30533 1.260 0.213 1239.492 0.01960
-0.06103 -0.01770 0.06107 0.08813 0.30644 1.170 0.207 1239.522 0.01962
-0.06110 -0.01772 0.06115 0.08824 0.30756 1.238 0.210 1239.552 0.01964
-0.06118 -0.01775 0.06123 0.08836 0.30867 1.281 0.213 1239.581 0.01967
