x y z dist_scaled dist_frac flux_norm sig_norm wavelength redshift
-0.03728 -0.01264 0.04158 0.05726 0.00000 0.862 0.131 1231.245 0.01281
-0.03735 -0.01266 0.04166 0.05737 0.00110 1.016 0.131 1231.275 0.01284
-0.03742 -0.01269 0.04174 0.05748 0.00220 1.044 0.132 1231.305 0.01286
-0.03750 -0.01271 0.04182 0.05759 0.00330 0.887 0.132 1231.335 0.01289
-0.03757 -0.01274 0.04190 0.05770 0.00440 0.783 0.126 1231.365 0.01291
-0.03764 -0.01276 0.04198 0.05781 0.00550 1.108 0.128 1231.395 0.01293
-0.03771 -0.01279 0.04206 0.05792 0.00661 0.940 0.135 1231.425 0.01296
-0.03779 -0.01281 0.04214 0.05803 0.00771 0.966 0.137 1231.454 0.01298
-0.03786 -0.01284 0.04222 0.05814 0.00881 1.016 0.140 1231.484 0.01301
-0.03793 -0.01286 0.04230 0.05826 0.00991 0.964 0.128 1231.514 0.01303
-0.03800 -0.01288 0.04238 0.05837 0.01101 1.198 0.133 1231.544 0.01306
-0.03807 -0.01291 0.04246 0.05848 0.01211 0.991 0.138 1231.574 0.01308
-0.03815 -0.01293 0.04255 0.05859 0.01321 0.810 0.127 1231.604 0.01311
-0.03822 -0.01296 0.04263 0.05870 0.01431 0.847 0.130 1231.634 0.01313
-0.03829 -0.01298 0.04271 0.05881 0.01541 0.835 0.129 1231.664 0.01316
-0.03836 -0.01301 0.04279 0.05892 0.01652 0.821 0.128 1231.693 0.01318
-0.03844 -0.01303 0.04287 0.05903 0.01762 1.198 0.132 1231.723 0.01321
-0.03851 -0.01306 0.04295 0.05914 0.01872 1.002 0.139 1231.753 0.01323
-0.03858 -0.01308 0.04303 0.05925 0.01982 1.080 0.135 1231.783 0.01325
-0.03865 -0.01310 0.04311 0.05936 0.02092 0.886 0.132 1231.813 0.01328
-0.03872 -0.01313 0.04319 0.05948 0.02202 1.093 0.144 1231.843 0.01330
-0.03880 -0.01315 0.04327 0.05959 0.02312 0.976 0.137 1231.873 0.01333
-0.03887 -0.01318 0.04335 0.05970 0.02423 1.008 0.130 1231.903 0.01335
-0.03894 -0.01320 0.04343 0.05981 0.02533 0.875 0.130 1231.932 0.01338
-0.03901 -0.01323 0.04351 0.05992 0.02643 0.959 0.136 1231.962 0.01340
-0.03909 -0.01325 0.04359 0.06003 0.02753 0.845 0.129 1231.992 0.01343
-0.03916 -0.01328 0.04367 0.06014 0.02863 0.826 0.128 1232.022 0.01345
-0.03923 -0.01330 0.04375 0.06025 0.02973 0.818 0.127 1232.052 0.01348
-0.03930 -0.01333 0.04383 0.06036 0.03084 1.018 0.131 1232.082 0.01350
-0.03938 -0.01335 0.04392 0.06047 0.03194 1.128 0.135 1232.112 0.01352
-0.03945 -0.01337 0.04400 0.06059 0.03304 1.043 0.140 1232.142 0.01355
-0.03952 -0.01340 0.04408 0.06070 0.03414 0.933 0.134 1232.171 0.01357
-0.03959 -0.01342 0.04416 0.06081 0.03524 0.810 0.127 1232.201 0.01360
-0.03966 -0.01345 0.04424 0.06092 0.03635 0.945 0.134 1232.231 0.01362
-0.03974 -0.01347 0.04432 0.06103 0.03745 1.122 0.136 1232.261 0.01365
-0.03981 -0.01350 0.04440 0.06114 0.03855 0.931 0.125 1232.291 0.01367
-0.03988 -0.01352 0.04448 0.06125 0.03965 1.014 0.130 1232.321 0.01370
-0.03995 -0.01355 0.04456 0.06136 0.04075 0.996 0.138 1232.351 0.01372
-0.04003 -0.01357 0.04464 0.06147 0.04186 1.103 0.136 1232.381 0.01375
-0.04010 -0.01359 0.04472 0.06159 0.04296 1.103 0.136 1232.411 0.01377
-0.04017 -0.01362 0.04480 0.06170 0.04406 0.975 0.137 1232.440 0.01380
-0.04024 -0.01364 0.04488 0.06181 0.04516 0.910 0.133 1232.470 0.01382
-0.04032 -0.01367 0.04496 0.06192 0.04627 0.987 0.129 1232.500 0.01384
-0.04039 -0.01369 0.04504 0.06203 0.04737 0.974 0.137 1232.530 0.01387
-0.04046 -0.01372 0.04513 0.06214 0.04847 0.846 0.129 1232.560 0.01389
-0.04053 -0.01374 0.04521 0.06225 0.04957 0.975 0.137 1232.590 0.01392
-0.04060 -0.01377 0.04529 0.06236 0.05068 0.793 0.126 1232.620 0.01394
-0.04068 -0.01379 0.04537 0.06247 0.05178 0.806 0.126 1232.650 0.01397
-0.04075 -0.01382 0.04545 0.06258 0.05288 0.846 0.129 1232.679 0.01399
-0.04082 -0.01384 0.04553 0.06270 0.05398 0.988 0.129 1232.709 0.01402
-0.04089 -0.01386 0.04561 0.06281 0.05509 0.935 0.134 1232.739 0.01404
-0.04097 -0.01389 0.04569 0.06292 0.05619 0.948 0.127 1232.769 0.01407
-0.04104 -0.01391 0.04577 0.06303 0.05729 1.227 0.225 1232.799 0.01409
-0.04111 -0.01394 0.04585 0.06314 0.05840 1.047 0.212 1232.829 0.01411
-0.04118 -0.01396 0.04593 0.06325 0.05950 0.893 0.200 1232.859 0.01414
-0.04126 -0.01399 0.04601 0.06336 0.06060 0.791 0.191 1232.889 0.01416
-0.04133 -0.01401 0.04609 0.06347 0.06170 1.047 0.212 1232.918 0.01419
-0.04140 -0.01404 0.04617 0.06358 0.06281 1.097 0.216 1232.948 0.01421
-0.04147 -0.01406 0.04625 0.06370 0.06391 0.918 0.202 1232.978 0.01424
-0.04154 -0.01409 0.04634 0.06381 0.06501 0.995 0.208 1233.008 0.01426
-0.04162 -0.01411 0.04642 0.06392 0.06612 0.969 0.206 1233.038 0.01429
-0.04169 -0.01413 0.04650 0.06403 0.06722 0.610 0.175 1233.068 0.01431
-0.04176 -0.01416 0.04658 0.06414 0.06832 1.148 0.219 1233.098 0.01434
-0.04183 -0.01418 0.04666 0.06425 0.06943 0.968 0.206 1233.128 0.01436
-0.04191 -0.01421 0.04674 0.06436 0.07053 1.071 0.214 1233.157 0.01439
-0.04198 -0.01423 0.04682 0.06447 0.07163 0.969 0.206 1233.187 0.01441
-0.04205 -0.01426 0.04690 0.06459 0.07274 1.224 0.225 1233.217 0.01443
-0.04212 -0.01428 0.04698 0.06470 0.07384 1.019 0.210 1233.247 0.01446
-0.04220 -0.01431 0.04706 0.06481 0.07494 0.917 0.202 1233.277 0.01448
-0.04227 -0.01433 0.04714 0.06492 0.07605 1.250 0.227 1233.307 0.01451
-0.04234 -0.01436 0.04722 0.06503 0.07715 0.993 0.208 1233.337 0.01453
-0.04241 -0.01438 0.04730 0.06514 0.07825 0.967 0.206 1233.367 0.01456
-0.04249 -0.01440 0.04738 0.06525 0.07936 0.866 0.198 1233.397 0.01458
-0.04256 -0.01443 0.04747 0.06536 0.08046 0.968 0.206 1233.426 0.01461
-0.04263 -0.01445 0.04755 0.06547 0.08156 0.814 0.193 1233.456 0.01463
-0.04270 -0.01448 0.04763 0.06559 0.08267 0.992 0.208 1233.486 0.01466
-0.04278 -0.01450 0.04771 0.06570 0.08377 0.967 0.205 1233.516 0.01468
-0.04285 -0.01453 0.04779 0.06581 0.08488 1.122 0.176 1233.546 0.01470
-0.04292 -0.01455 0.04787 0.06592 0.08598 0.930 0.125 1233.576 0.01473
-0.04299 -0.01458 0.04795 0.06603 0.08708 0.816 0.127 1233.606 0.01475
-0.04307 -0.01460 0.04803 0.06614 0.08819 1.072 0.133 1233.636 0.01478
-0.04314 -0.01463 0.04811 0.06625 0.08929 0.995 0.137 1233.665 0.01480
-0.04321 -0.01465 0.04819 0.06636 0.09040 0.931 0.134 1233.695 0.01483
-0.04328 -0.01467 0.04827 0.06648 0.09150 1.108 0.135 1233.725 0.01485
-0.04335 -0.01470 0.04835 0.06659 0.09260 0.994 0.137 1233.755 0.01488
-0.04343 -0.01472 0.04843 0.06670 0.09371 1.058 0.141 1233.785 0.01490
-0.04350 -0.01475 0.04852 0.06681 0.09481 1.109 0.135 1233.815 0.01493
-0.04357 -0.01477 0.04860 0.06692 0.09592 1.136 0.136 1233.845 0.01495
-0.04364 -0.01480 0.04868 0.06703 0.09702 1.173 0.138 1233.875 0.01497
-0.04372 -0.01482 0.04876 0.06714 0.09813 0.929 0.124 1233.904 0.01500
-0.04379 -0.01485 0.04884 0.06725 0.09923 0.968 0.126 1233.934 0.01502
-0.04386 -0.01487 0.04892 0.06737 0.10033 1.057 0.132 1233.964 0.01505
-0.04393 -0.01490 0.04900 0.06748 0.10144 1.146 0.129 1233.994 0.01507
-0.04401 -0.01492 0.04908 0.06759 0.10254 1.007 0.138 1234.024 0.01510
-0.04408 -0.01494 0.04916 0.06770 0.10365 1.057 0.133 1234.054 0.01512
-0.04415 -0.01497 0.04924 0.06781 0.10475 1.056 0.133 1234.084 0.01515
-0.04422 -0.01499 0.04932 0.06792 0.10586 1.005 0.129 1234.114 0.01517
-0.04430 -0.01502 0.04940 0.06803 0.10696 1.056 0.132 1234.143 0.01520
-0.04437 -0.01504 0.04949 0.06814 0.10807 1.070 0.141 1234.173 0.01522
-0.04444 -0.01507 0.04957 0.06826 0.10917 1.312 0.130 1234.203 0.01525
-0.04451 -0.01509 0.04965 0.06837 0.11028 0.851 0.129 1234.233 0.01527
-0.04459 -0.01512 0.04973 0.06848 0.11138 0.992 0.137 1234.263 0.01529
-0.04466 -0.01514 0.04981 0.06859 0.11248 0.902 0.132 1234.293 0.01532
-0.04473 -0.01517 0.04989 0.06870 0.11359 0.978 0.136 1234.323 0.01534
-0.04480 -0.01519 0.04997 0.06881 0.11469 0.979 0.136 1234.353 0.01537
-0.04488 -0.01521 0.05005 0.06892 0.11580 0.978 0.136 1234.383 0.01539
-0.04495 -0.01524 0.05013 0.06904 0.11690 1.093 0.134 1234.412 0.01542
-0.04502 -0.01526 0.05021 0.06915 0.11801 0.966 0.135 1234.442 0.01544
-0.04509 -0.01529 0.05029 0.06926 0.11911 0.978 0.127 1234.472 0.01547
-0.04517 -0.01531 0.05037 0.06937 0.12022 1.066 0.133 1234.502 0.01549
-0.04524 -0.01534 0.05046 0.06948 0.12132 0.913 0.132 1234.532 0.01552
-0.04531 -0.01536 0.05054 0.06959 0.12243 1.143 0.137 1234.562 0.01554
-0.04538 -0.01539 0.05062 0.06970 0.12354 0.939 0.134 1234.592 0.01556
-0.04546 -0.01541 0.05070 0.06981 0.12464 1.016 0.138 1234.622 0.01559
-0.04553 -0.01544 0.05078 0.06993 0.12575 1.181 0.130 1234.651 0.01561
-0.04560 -0.01546 0.05086 0.07004 0.12685 0.912 0.132 1234.681 0.01564
-0.04567 -0.01549 0.05094 0.07015 0.12796 0.938 0.134 1234.711 0.01566
-0.04575 -0.01551 0.05102 0.07026 0.12906 0.759 0.123 1234.741 0.01569
-0.04582 -0.01553 0.05110 0.07037 0.13017 1.078 0.133 1234.771 0.01571
-0.04589 -0.01556 0.05118 0.07048 0.13127 1.090 0.133 1234.801 0.01574
-0.04596 -0.01558 0.05126 0.07059 0.13238 1.065 0.132 1234.831 0.01576
-0.04604 -0.01561 0.05134 0.07071 0.13348 1.178 0.138 1234.861 0.01579
-0.04611 -0.01563 0.05143 0.07082 0.13459 0.923 0.133 1234.890 0.01581
-0.04618 -0.01566 0.05151 0.07093 0.13570 0.911 0.132 1234.920 0.01584
-0.04625 -0.01568 0.05159 0.07104 0.13680 0.987 0.127 1234.950 0.01586
-0.04633 -0.01571 0.05167 0.07115 0.13791 1.036 0.139 1234.980 0.01588
-0.04640 -0.01573 0.05175 0.07126 0.13901 0.947 0.125 1235.010 0.01591
-0.04647 -0.01576 0.05183 0.07137 0.14012 0.985 0.128 1235.040 0.01593
-0.04654 -0.01578 0.05191 0.07149 0.14122 0.922 0.132 1235.070 0.01596
-0.04662 -0.01580 0.05199 0.07160 0.14233 1.012 0.138 1235.100 0.01598
-0.04669 -0.01583 0.05207 0.07171 0.14344 0.986 0.136 1235.129 0.01601
-0.04676 -0.01585 0.05215 0.07182 0.14454 1.062 0.132 1235.159 0.01603
-0.04683 -0.01588 0.05223 0.07193 0.14565 1.010 0.137 1235.189 0.01606
-0.04691 -0.01590 0.05232 0.07204 0.14675 1.252 0.126 1235.219 0.01608
-0.04698 -0.01593 0.05240 0.07215 0.14786 1.175 0.131 1235.249 0.01611
-0.04705 -0.01595 0.05248 0.07227 0.14897 0.781 0.124 1235.279 0.01613
-0.04712 -0.01598 0.05256 0.07238 0.15007 1.085 0.133 1235.309 0.01615
-0.04720 -0.01600 0.05264 0.07249 0.15118 0.896 0.131 1235.339 0.01618
-0.04727 -0.01603 0.05272 0.07260 0.15228 1.023 0.130 1235.369 0.01620
-0.04734 -0.01605 0.05280 0.07271 0.15339 1.009 0.129 1235.398 0.01623
-0.04741 -0.01608 0.05288 0.07282 0.15450 0.984 0.136 1235.428 0.01625
-0.04749 -0.01610 0.05296 0.07293 0.15560 0.895 0.122 1235.458 0.01628
-0.04756 -0.01612 0.05304 0.07305 0.15671 0.984 0.136 1235.488 0.01630
-0.04763 -0.01615 0.05313 0.07316 0.15782 1.123 0.135 1235.518 0.01633
-0.04771 -0.01617 0.05321 0.07327 0.15892 1.021 0.130 1235.548 0.01635
-0.04778 -0.01620 0.05329 0.07338 0.16003 0.933 0.133 1235.578 0.01638
-0.04785 -0.01622 0.05337 0.07349 0.16114 0.957 0.134 1235.608 0.01640
-0.04792 -0.01625 0.05345 0.07360 0.16224 0.868 0.129 1235.637 0.01643
-0.04800 -0.01627 0.05353 0.07371 0.16335 1.096 0.134 1235.667 0.01645
-0.04807 -0.01630 0.05361 0.07383 0.16446 0.994 0.128 1235.697 0.01647
-0.04814 -0.01632 0.05369 0.07394 0.16556 0.981 0.136 1235.727 0.01650
-0.04821 -0.01635 0.05377 0.07405 0.16667 0.904 0.123 1235.757 0.01652
-0.04829 -0.01637 0.05385 0.07416 0.16778 1.081 0.133 1235.787 0.01655
-0.04836 -0.01640 0.05393 0.07427 0.16888 0.943 0.133 1235.817 0.01657
-0.04843 -0.01642 0.05402 0.07438 0.16999 1.208 0.131 1235.847 0.01660
-0.04850 -0.01644 0.05410 0.07450 0.17110 1.080 0.133 1235.876 0.01662
-0.04858 -0.01647 0.05418 0.07461 0.17220 0.967 0.135 1235.906 0.01665
-0.04865 -0.01649 0.05426 0.07472 0.17331 0.714 0.119 1235.936 0.01667
-0.04872 -0.01652 0.05434 0.07483 0.17442 1.157 0.129 1235.966 0.01670
-0.04879 -0.01654 0.05442 0.07494 0.17553 0.828 0.126 1235.996 0.01672
-0.04887 -0.01657 0.05450 0.07505 0.17663 0.992 0.128 1236.026 0.01674
-0.04894 -0.01659 0.05458 0.07516 0.17774 0.827 0.126 1236.056 0.01677
-0.04901 -0.01662 0.05466 0.07528 0.17885 1.041 0.131 1236.086 0.01679
-0.04908 -0.01664 0.05474 0.07539 0.17995 1.256 0.126 1236.115 0.01682
-0.04916 -0.01667 0.05483 0.07550 0.18106 1.105 0.134 1236.145 0.01684
-0.04923 -0.01669 0.05491 0.07561 0.18217 1.016 0.137 1236.175 0.01687
-0.04930 -0.01672 0.05499 0.07572 0.18328 0.789 0.124 1236.205 0.01689
-0.04938 -0.01674 0.05507 0.07583 0.18438 1.167 0.130 1236.235 0.01692
-0.04945 -0.01676 0.05515 0.07595 0.18549 1.016 0.137 1236.265 0.01694
-0.04952 -0.01679 0.05523 0.07606 0.18660 0.990 0.128 1236.295 0.01697
-0.04959 -0.01681 0.05531 0.07617 0.18771 0.876 0.129 1236.325 0.01699
-0.04967 -0.01684 0.05539 0.07628 0.18881 1.191 0.123 1236.355 0.01701
-0.04974 -0.01686 0.05547 0.07639 0.18992 0.914 0.131 1236.384 0.01704
-0.04981 -0.01689 0.05556 0.07650 0.19103 1.115 0.135 1236.414 0.01706
-0.04988 -0.01691 0.05564 0.07661 0.19214 1.140 0.135 1236.444 0.01709
-0.04996 -0.01694 0.05572 0.07673 0.19324 1.026 0.138 1236.474 0.01711
-0.05003 -0.01696 0.05580 0.07684 0.19435 1.025 0.130 1236.504 0.01714
-0.05010 -0.01699 0.05588 0.07695 0.19546 0.812 0.125 1236.534 0.01716
-0.05017 -0.01701 0.05596 0.07706 0.19657 1.014 0.129 1236.564 0.01719
-0.05025 -0.01704 0.05604 0.07717 0.19768 1.026 0.130 1236.594 0.01721
-0.05032 -0.01706 0.05612 0.07728 0.19878 1.140 0.136 1236.623 0.01724
-0.05039 -0.01708 0.05620 0.07740 0.19989 0.837 0.127 1236.653 0.01726
-0.05047 -0.01711 0.05628 0.07751 0.20100 1.164 0.129 1236.683 0.01729
-0.05054 -0.01713 0.05637 0.07762 0.20211 0.862 0.128 1236.713 0.01731
-0.05061 -0.01716 0.05645 0.07773 0.20322 1.013 0.137 1236.743 0.01733
-0.05068 -0.01718 0.05653 0.07784 0.20432 1.012 0.129 1236.773 0.01736
-0.05076 -0.01721 0.05661 0.07795 0.20543 1.049 0.131 1236.803 0.01738
-0.05083 -0.01723 0.05669 0.07807 0.20654 0.974 0.126 1236.833 0.01741
-0.05090 -0.01726 0.05677 0.07818 0.20765 0.874 0.129 1236.862 0.01743
-0.05097 -0.01728 0.05685 0.07829 0.20876 0.873 0.129 1236.892 0.01746
-0.05105 -0.01731 0.05693 0.07840 0.20987 1.024 0.129 1236.922 0.01748
-0.05112 -0.01733 0.05701 0.07851 0.21097 0.886 0.129 1236.952 0.01751
-0.05119 -0.01736 0.05710 0.07862 0.21208 0.860 0.128 1236.982 0.01753
-0.05127 -0.01738 0.05718 0.07874 0.21319 0.785 0.123 1237.012 0.01756
-0.05134 -0.01741 0.05726 0.07885 0.21430 1.048 0.131 1237.042 0.01758
-0.05141 -0.01743 0.05734 0.07896 0.21541 0.734 0.120 1237.072 0.01760
-0.05148 -0.01745 0.05742 0.07907 0.21652 0.898 0.130 1237.101 0.01763
-0.05156 -0.01748 0.05750 0.07918 0.21762 0.858 0.119 1237.131 0.01765
-0.05163 -0.01750 0.05758 0.07929 0.21873 0.701 0.117 1237.161 0.01768
-0.05170 -0.01753 0.05766 0.07941 0.21984 0.924 0.122 1237.191 0.01770
-0.05177 -0.01755 0.05774 0.07952 0.22095 0.852 0.127 1237.221 0.01773
-0.05185 -0.01758 0.05783 0.07963 0.22206 0.905 0.122 1237.251 0.01775
-0.05192 -0.01760 0.05791 0.07974 0.22317 0.716 0.118 1237.281 0.01778
-0.05199 -0.01763 0.05799 0.07985 0.22428 0.977 0.153 1237.311 0.01780
-0.05207 -0.01765 0.05807 0.07996 0.22539 0.751 0.121 1237.341 0.01783
-0.05214 -0.01768 0.05815 0.08008 0.22650 0.823 0.125 1237.370 0.01785
-0.05221 -0.01770 0.05823 0.08019 0.22760 1.055 0.129 1237.400 0.01788
-0.05228 -0.01773 0.05831 0.08030 0.22871 1.170 0.128 1237.430 0.01790
-0.05236 -0.01775 0.05839 0.08041 0.22982 0.860 0.128 1237.460 0.01792
-0.05243 -0.01778 0.05847 0.08052 0.23093 0.926 0.132 1237.490 0.01795
-0.05250 -0.01780 0.05856 0.08064 0.23204 0.963 0.133 1237.520 0.01797
-0.05257 -0.01782 0.05864 0.08075 0.23315 0.813 0.124 1237.550 0.01800
-0.05265 -0.01785 0.05872 0.08086 0.23426 0.909 0.122 1237.580 0.01802
-0.05272 -0.01787 0.05880 0.08097 0.23537 0.737 0.119 1237.609 0.01805
-0.05279 -0.01790 0.05888 0.08108 0.23648 0.643 0.114 1237.639 0.01807
-0.05287 -0.01792 0.05896 0.08119 0.23759 0.643 0.114 1237.669 0.01810
-0.05294 -0.01795 0.05904 0.08131 0.23870 0.680 0.116 1237.699 0.01812
-0.05301 -0.01797 0.05912 0.08142 0.23981 0.929 0.123 1237.729 0.01815
-0.05308 -0.01800 0.05920 0.08153 0.24092 0.904 0.130 1237.759 0.01817
-0.05316 -0.01802 0.05929 0.08164 0.24202 0.741 0.120 1237.789 0.01819
-0.05323 -0.01805 0.05937 0.08175 0.24313 0.741 0.120 1237.819 0.01822
-0.05330 -0.01807 0.05945 0.08186 0.24424 0.989 0.135 1237.848 0.01824
-0.05337 -0.01810 0.05953 0.08198 0.24535 0.852 0.127 1237.878 0.01827
-0.05345 -0.01812 0.05961 0.08209 0.24646 0.802 0.124 1237.908 0.01829
-0.05352 -0.01815 0.05969 0.08220 0.24757 1.151 0.128 1237.938 0.01832
-0.05359 -0.01817 0.05977 0.08231 0.24868 0.914 0.122 1237.968 0.01834
-0.05367 -0.01819 0.05985 0.08242 0.24979 0.914 0.130 1237.998 0.01837
-0.05374 -0.01822 0.05994 0.08254 0.25090 0.976 0.126 1238.028 0.01839
-0.05381 -0.01824 0.06002 0.08265 0.25201 0.913 0.131 1238.058 0.01842
-0.05388 -0.01827 0.06010 0.08276 0.25312 1.087 0.132 1238.087 0.01844
-0.05396 -0.01829 0.06018 0.08287 0.25423 0.838 0.126 1238.117 0.01847
-0.05403 -0.01832 0.06026 0.08298 0.25534 0.900 0.130 1238.147 0.01849
-0.05410 -0.01834 0.06034 0.08309 0.25645 1.086 0.124 1238.177 0.01851
-0.05418 -0.01837 0.06042 0.08321 0.25756 0.800 0.124 1238.207 0.01854
-0.05425 -0.01839 0.06050 0.08332 0.25867 1.123 0.134 1238.237 0.01856
-0.05432 -0.01842 0.06059 0.08343 0.25978 0.985 0.127 1238.267 0.01859
-0.05439 -0.01844 0.06067 0.08354 0.26089 1.395 0.139 1238.297 0.01861
-0.05447 -0.01847 0.06075 0.08365 0.26200 0.899 0.130 1238.327 0.01864
-0.05454 -0.01849 0.06083 0.08377 0.26311 0.836 0.126 1238.356 0.01866
-0.05461 -0.01852 0.06091 0.08388 0.26422 1.085 0.131 1238.386 0.01869
-0.05469 -0.01854 0.06099 0.08399 0.26533 0.750 0.120 1238.416 0.01871
-0.05476 -0.01857 0.06107 0.08410 0.26644 0.936 0.131 1238.446 0.01874
-0.05483 -0.01859 0.06115 0.08421 0.26755 0.923 0.131 1238.476 0.01876
-0.05490 -0.01861 0.06124 0.08432 0.26866 0.688 0.116 1238.506 0.01878
-0.05498 -0.01864 0.06132 0.08444 0.26978 0.912 0.122 1238.536 0.01881
-0.05505 -0.01866 0.06140 0.08455 0.27089 1.072 0.123 1238.566 0.01883
-0.05512 -0.01869 0.06148 0.08466 0.27200 0.762 0.121 1238.595 0.01886
-0.05520 -0.01871 0.06156 0.08477 0.27311 1.010 0.128 1238.625 0.01888
-0.05527 -0.01874 0.06164 0.08488 0.27422 0.972 0.133 1238.655 0.01891
-0.05534 -0.01876 0.06172 0.08500 0.27533 0.885 0.128 1238.685 0.01893
-0.05541 -0.01879 0.06180 0.08511 0.27644 0.823 0.125 1238.715 0.01896
-0.05549 -0.01881 0.06189 0.08522 0.27755 0.885 0.128 1238.745 0.01898
-0.05556 -0.01884 0.06197 0.08533 0.27866 0.749 0.120 1238.775 0.01901
-0.05563 -0.01886 0.06205 0.08544 0.27977 0.749 0.120 1238.805 0.01903
-0.05571 -0.01889 0.06213 0.08556 0.28088 0.921 0.122 1238.834 0.01905
-0.05578 -0.01891 0.06221 0.08567 0.28199 1.020 0.136 1238.864 0.01908
-0.05585 -0.01894 0.06229 0.08578 0.28310 0.983 0.134 1238.894 0.01910
-0.05592 -0.01896 0.06237 0.08589 0.28422 1.304 0.134 1238.924 0.01913
-0.05600 -0.01898 0.06245 0.08600 0.28533 0.748 0.120 1238.954 0.01915
-0.05607 -0.01901 0.06254 0.08612 0.28644 0.995 0.134 1238.984 0.01918
-0.05614 -0.01903 0.06262 0.08623 0.28755 0.846 0.126 1239.014 0.01920
-0.05622 -0.01906 0.06270 0.08634 0.28866 0.981 0.126 1239.044 0.01923
-0.05629 -0.01908 0.06278 0.08645 0.28977 0.849 0.163 1239.073 0.01925
-0.05636 -0.01911 0.06286 0.08656 0.29088 1.013 0.207 1239.103 0.01928
-0.05643 -0.01913 0.06294 0.08668 0.29199 0.987 0.205 1239.133 0.01930
-0.05651 -0.01916 0.06302 0.08679 0.29310 0.763 0.187 1239.163 0.01933
-0.05658 -0.01918 0.06310 0.08690 0.29422 0.863 0.195 1239.193 0.01935
-0.05665 -0.01921 0.06319 0.08701 0.29533 0.738 0.184 1239.223 0.01937
-0.05673 -0.01923 0.06327 0.08712 0.29644 1.235 0.223 1239.253 0.01940
-0.05680 -0.01926 0.06335 0.08724 0.29755 1.061 0.210 1239.283 0.01942
-0.05687 -0.01928 0.06343 0.08735 0.29866 0.986 0.205 1239.313 0.01945
-0.05694 -0.01931 0.06351 0.08746 0.29977 1.011 0.206 1239.342 0.01947
-0.05702 -0.01933 0.06359 0.08757 0.30089 1.234 0.222 1239.372 0.01950
-0.05709 -0.01936 0.06367 0.08768 0.30200 1.085 0.212 1239.402 0.01952
-0.05716 -0.01938 0.06376 0.08780 0.30311 1.110 0.213 1239.432 0.01955
-0.05724 -0.01941 0.06384 0.08791 0.30422 1.060 0.210 1239.462 0.01957
-0.05731 -0.01943 0.06392 0.08802 0.30533 0.985 0.204 1239.492 0.01960
-0.05738 -0.01945 0.06400 0.08813 0.30644 1.084 0.211 1239.522 0.01962
-0.05746 -0.01948 0.06408 0.08824 0.30756 1.083 0.212 1239.552 0.01964
-0.05753 -0.01950 0.06416 0.08836 0.30867 1.281 0.225 1239.581 0.01967
