x y z dist_scaled dist_frac flux_norm wavelength redshift
-0.12711 0.02974 0.48533 0.50258 0.00000 1.058 1236.115 0.01682
-0.12730 0.02979 0.48605 0.50333 0.00188 1.053 1236.145 0.01684
-0.12749 0.02983 0.48677 0.50407 0.00375 1.005 1236.175 0.01687
-0.12767 0.02988 0.48749 0.50481 0.00563 0.980 1236.205 0.01689
-0.12786 0.02992 0.48821 0.50556 0.00751 0.718 1236.235 0.01692
-0.12805 0.02996 0.48892 0.50630 0.00938 0.896 1236.265 0.01694
-0.12824 0.03001 0.48964 0.50705 0.01126 1.329 1236.295 0.01697
-0.12843 0.03005 0.49036 0.50779 0.01313 0.701 1236.325 0.01699
-0.12861 0.03010 0.49108 0.50853 0.01501 1.056 1236.355 0.01701
-0.12880 0.03014 0.49180 0.50928 0.01689 0.757 1236.384 0.01704
-0.12899 0.03018 0.49252 0.51002 0.01876 0.789 1236.414 0.01706
-0.12918 0.03023 0.49323 0.51077 0.02064 0.626 1236.444 0.01709
-0.12937 0.03027 0.49395 0.51151 0.02252 0.538 1236.474 0.01711
-0.12956 0.03032 0.49467 0.51225 0.02440 0.405 1236.504 0.01714
-0.12974 0.03036 0.49539 0.51300 0.02627 1.005 1236.534 0.01716
-0.12993 0.03040 0.49611 0.51374 0.02815 0.937 1236.564 0.01719
-0.13012 0.03045 0.49683 0.51449 0.03003 0.871 1236.594 0.01721
-0.13031 0.03049 0.49755 0.51523 0.03190 0.804 1236.623 0.01724
-0.13050 0.03054 0.49826 0.51597 0.03378 0.535 1236.653 0.01726
-0.13068 0.03058 0.49898 0.51672 0.03566 1.069 1236.683 0.01729
-0.13087 0.03062 0.49970 0.51746 0.03754 1.071 1236.713 0.01731
-0.13106 0.03067 0.50042 0.51821 0.03941 0.733 1236.743 0.01733
-0.13125 0.03071 0.50114 0.51895 0.04129 1.607 1236.773 0.01736
-0.13144 0.03076 0.50186 0.51970 0.04317 0.604 1236.803 0.01738
-0.13163 0.03080 0.50258 0.52044 0.04505 1.009 1236.833 0.01741
-0.13181 0.03084 0.50330 0.52118 0.04692 0.874 1236.862 0.01743
-0.13200 0.03089 0.50401 0.52193 0.04880 0.941 1236.892 0.01746
-0.13219 0.03093 0.50473 0.52267 0.05068 0.941 1236.922 0.01748
-0.13238 0.03098 0.50545 0.52342 0.05256 1.075 1236.952 0.01751
-0.13257 0.03102 0.50617 0.52416 0.05444 1.074 1236.982 0.01753
-0.13276 0.03106 0.50689 0.52491 0.05631 1.408 1237.012 0.01756
-0.13294 0.03111 0.50761 0.52565 0.05819 1.409 1237.042 0.01758
-0.13313 0.03115 0.50833 0.52640 0.06007 1.137 1237.072 0.01760
-0.13332 0.03120 0.50905 0.52714 0.06195 1.335 1237.101 0.01763
-0.13351 0.03124 0.50977 0.52788 0.06383 0.796 1237.131 0.01765
-0.13370 0.03128 0.51049 0.52863 0.06571 1.201 1237.161 0.01768
-0.13389 0.03133 0.51120 0.52937 0.06758 1.272 1237.191 0.01770
-0.13407 0.03137 0.51192 0.53012 0.06946 0.746 1237.221 0.01773
-0.13426 0.03142 0.51264 0.53086 0.07134 1.073 1237.251 0.01775
-0.13445 0.03146 0.51336 0.53161 0.07322 0.822 1237.281 0.01778
-0.13464 0.03150 0.51408 0.53235 0.07510 0.624 1237.311 0.01780
-0.13483 0.03155 0.51480 0.53310 0.07698 0.875 1237.341 0.01783
-0.13502 0.03159 0.51552 0.53384 0.07886 0.924 1237.370 0.01785
-0.13520 0.03164 0.51624 0.53459 0.08074 0.724 1237.400 0.01788
-0.13539 0.03168 0.51696 0.53533 0.08261 1.530 1237.430 0.01790
-0.13558 0.03173 0.51768 0.53608 0.08449 1.130 1237.460 0.01792
-0.13577 0.03177 0.51840 0.53682 0.08637 0.879 1237.490 0.01795
-0.13596 0.03181 0.51912 0.53757 0.08825 1.033 1237.520 0.01797
-0.13615 0.03186 0.51984 0.53831 0.09013 1.145 1237.550 0.01800
-0.13633 0.03190 0.52056 0.53906 0.09201 0.639 1237.580 0.01802
-0.13652 0.03195 0.52127 0.53980 0.09389 1.148 1237.609 0.01805
-0.13671 0.03199 0.52199 0.54055 0.09577 0.988 1237.639 0.01807
-0.13690 0.03203 0.52271 0.54129 0.09765 1.024 1237.669 0.01810
-0.13709 0.03208 0.52343 0.54204 0.09953 1.261 1237.699 0.01812
-0.13728 0.03212 0.52415 0.54278 0.10141 0.864 1237.729 0.01815
-0.13746 0.03217 0.52487 0.54353 0.10329 1.573 1237.759 0.01817
-0.13765 0.03221 0.52559 0.54427 0.10517 0.751 1237.789 0.01819
-0.13784 0.03225 0.52631 0.54502 0.10705 0.792 1237.819 0.01822
-0.13803 0.03230 0.52703 0.54576 0.10893 1.022 1237.848 0.01824
-0.13822 0.03234 0.52775 0.54651 0.11081 1.008 1237.878 0.01827
-0.13841 0.03239 0.52847 0.54725 0.11269 1.209 1237.908 0.01829
-0.13860 0.03243 0.52919 0.54800 0.11457 1.018 1237.938 0.01832
-0.13878 0.03248 0.52991 0.54874 0.11645 1.231 1237.968 0.01834
-0.13897 0.03252 0.53063 0.54949 0.11833 1.291 1237.998 0.01837
-0.13916 0.03256 0.53135 0.55024 0.12021 1.072 1238.028 0.01839
-0.13935 0.03261 0.53207 0.55098 0.12209 0.955 1238.058 0.01842
-0.13954 0.03265 0.53279 0.55173 0.12397 0.838 1238.087 0.01844
-0.13973 0.03270 0.53351 0.55247 0.12585 1.095 1238.117 0.01847
-0.13992 0.03274 0.53423 0.55322 0.12773 0.840 1238.147 0.01849
-0.14010 0.03278 0.53495 0.55396 0.12961 0.994 1238.177 0.01851
-0.14029 0.03283 0.53567 0.55471 0.13149 0.945 1238.207 0.01854
-0.14048 0.03287 0.53639 0.55545 0.13338 0.844 1238.237 0.01856
-0.14067 0.03292 0.53711 0.55620 0.13526 1.150 1238.267 0.01859
-0.14086 0.03296 0.53783 0.55695 0.13714 1.050 1238.297 0.01861
-0.14105 0.03300 0.53855 0.55769 0.13902 1.153 1238.327 0.01864
-0.14124 0.03305 0.53927 0.55844 0.14090 1.152 1238.356 0.01866
-0.14142 0.03309 0.53999 0.55918 0.14278 0.900 1238.386 0.01869
-0.14161 0.03314 0.54071 0.55993 0.14466 0.850 1238.416 0.01871
-0.14180 0.03318 0.54143 0.56067 0.14654 1.154 1238.446 0.01874
-0.14199 0.03323 0.54215 0.56142 0.14843 0.851 1238.476 0.01876
-0.14218 0.03327 0.54287 0.56217 0.15031 0.900 1238.506 0.01878
-0.14237 0.03331 0.54359 0.56291 0.15219 0.849 1238.536 0.01881
-0.14256 0.03336 0.54431 0.56366 0.15407 0.592 1238.566 0.01883
-0.14274 0.03340 0.54503 0.56440 0.15595 0.390 1238.595 0.01886
-0.14293 0.03345 0.54575 0.56515 0.15783 0.748 1238.625 0.01888
-0.14312 0.03349 0.54647 0.56590 0.15972 1.004 1238.655 0.01891
-0.14331 0.03353 0.54719 0.56664 0.16160 0.908 1238.685 0.01893
-0.14350 0.03358 0.54791 0.56739 0.16348 0.603 1238.715 0.01896
-0.14369 0.03362 0.54863 0.56813 0.16536 1.165 1238.745 0.01898
-0.14388 0.03367 0.54935 0.56888 0.16724 1.366 1238.775 0.01901
-0.14407 0.03371 0.55008 0.56963 0.16913 0.803 1238.805 0.01903
-0.14425 0.03375 0.55080 0.57037 0.17101 1.062 1238.834 0.01905
-0.14444 0.03380 0.55152 0.57112 0.17289 0.446 1238.864 0.01908
-0.14463 0.03384 0.55224 0.57186 0.17477 1.060 1238.894 0.01910
-0.14482 0.03389 0.55296 0.57261 0.17665 0.906 1238.924 0.01913
-0.14501 0.03393 0.55368 0.57336 0.17854 1.111 1238.954 0.01915
-0.14520 0.03398 0.55440 0.57410 0.18042 1.063 1238.984 0.01918
-0.14539 0.03402 0.55512 0.57485 0.18230 1.216 1239.014 0.01920
-0.14558 0.03406 0.55584 0.57560 0.18419 0.860 1239.044 0.01923
-0.14576 0.03411 0.55656 0.57634 0.18607 0.860 1239.073 0.01925
-0.14595 0.03415 0.55728 0.57709 0.18795 1.266 1239.103 0.01928
-0.14614 0.03420 0.55800 0.57784 0.18983 1.009 1239.133 0.01930
-0.14633 0.03424 0.55872 0.57858 0.19172 0.958 1239.163 0.01933
-0.14652 0.03428 0.55944 0.57933 0.19360 1.009 1239.193 0.01935
-0.14671 0.03433 0.56017 0.58007 0.19548 1.267 1239.223 0.01937
-0.14690 0.03437 0.56089 0.58082 0.19737 1.112 1239.253 0.01940
-0.14709 0.03442 0.56161 0.58157 0.19925 0.749 1239.283 0.01942
-0.14727 0.03446 0.56233 0.58231 0.20113 1.314 1239.313 0.01945
-0.14746 0.03451 0.56305 0.58306 0.20302 0.851 1239.342 0.01947
-0.14765 0.03455 0.56377 0.58381 0.20490 0.820 1239.372 0.01950
-0.14784 0.03459 0.56449 0.58455 0.20678 0.622 1239.402 0.01952
-0.14803 0.03464 0.56521 0.58530 0.20867 1.036 1239.432 0.01955
-0.14822 0.03468 0.56593 0.58605 0.21055 1.244 1239.462 0.01957
-0.14841 0.03473 0.56665 0.58679 0.21243 1.178 1239.492 0.01960
-0.14860 0.03477 0.56738 0.58754 0.21432 0.975 1239.522 0.01962
-0.14879 0.03482 0.56810 0.58829 0.21620 1.112 1239.552 0.01964
-0.14897 0.03486 0.56882 0.58904 0.21809 1.045 1239.581 0.01967
-0.14916 0.03490 0.56954 0.58978 0.21997 1.251 1239.611 0.01969
-0.14935 0.03495 0.57026 0.59053 0.22185 1.319 1239.641 0.01972
-0.14954 0.03499 0.57098 0.59128 0.22374 1.942 1239.671 0.01974
-0.14973 0.03504 0.57170 0.59202 0.22562 1.175 1239.701 0.01977
-0.14992 0.03508 0.57242 0.59277 0.22751 0.971 1239.731 0.01979
-0.15011 0.03512 0.57315 0.59352 0.22939 0.763 1239.761 0.01982
-0.15030 0.03517 0.57387 0.59426 0.23128 0.768 1239.791 0.01984
-0.15049 0.03521 0.57459 0.59501 0.23316 0.844 1239.820 0.01987
-0.15067 0.03526 0.57531 0.59576 0.23504 1.184 1239.850 0.01989
-0.15086 0.03530 0.57603 0.59650 0.23693 0.982 1239.880 0.01992
-0.15105 0.03535 0.57675 0.59725 0.23881 0.705 1239.910 0.01994
-0.15124 0.03539 0.57747 0.59800 0.24070 0.980 1239.940 0.01996
-0.15143 0.03543 0.57820 0.59875 0.24258 1.256 1239.970 0.01999
-0.15162 0.03548 0.57892 0.59949 0.24447 1.045 1240.000 0.02001
-0.15181 0.03552 0.57964 0.60024 0.24635 1.185 1240.030 0.02004
-0.15200 0.03557 0.58036 0.60099 0.24824 0.699 1240.059 0.02006
-0.15219 0.03561 0.58108 0.60174 0.25012 0.841 1240.089 0.02009
-0.15238 0.03566 0.58180 0.60248 0.25201 1.535 1240.119 0.02011
-0.15256 0.03570 0.58253 0.60323 0.25389 1.256 1240.149 0.02014
-0.15275 0.03574 0.58325 0.60398 0.25578 1.107 1240.179 0.02016
-0.15294 0.03579 0.58397 0.60472 0.25766 1.016 1240.209 0.02019
-0.15313 0.03583 0.58469 0.60547 0.25955 0.550 1240.239 0.02021
-0.15332 0.03588 0.58541 0.60622 0.26144 1.221 1240.269 0.02023
-0.15351 0.03592 0.58613 0.60697 0.26332 0.857 1240.299 0.02026
-0.15370 0.03596 0.58686 0.60771 0.26521 1.274 1240.328 0.02028
-0.15389 0.03601 0.58758 0.60846 0.26709 1.067 1240.358 0.02031
-0.15408 0.03605 0.58830 0.60921 0.26898 0.549 1240.388 0.02033
-0.15427 0.03610 0.58902 0.60996 0.27086 1.013 1240.418 0.02036
-0.15445 0.03614 0.58974 0.61070 0.27275 0.961 1240.448 0.02038
-0.15464 0.03619 0.59047 0.61145 0.27464 1.235 1240.478 0.02041
-0.15483 0.03623 0.59119 0.61220 0.27652 0.921 1240.508 0.02043
-0.15502 0.03627 0.59191 0.61295 0.27841 0.631 1240.538 0.02046
-0.15521 0.03632 0.59263 0.61370 0.28029 0.761 1240.567 0.02048
-0.15540 0.03636 0.59335 0.61444 0.28218 0.695 1240.597 0.02050
-0.15559 0.03641 0.59408 0.61519 0.28407 0.769 1240.627 0.02053
-0.15578 0.03645 0.59480 0.61594 0.28595 0.725 1240.657 0.02055
-0.15597 0.03650 0.59552 0.61669 0.28784 0.848 1240.687 0.02058
-0.15616 0.03654 0.59624 0.61743 0.28973 0.899 1240.717 0.02060
-0.15635 0.03658 0.59696 0.61818 0.29161 1.153 1240.747 0.02063
-0.15653 0.03663 0.59769 0.61893 0.29350 1.138 1240.777 0.02065
-0.15672 0.03667 0.59841 0.61968 0.29539 0.844 1240.806 0.02068
-0.15691 0.03672 0.59913 0.62043 0.29727 0.842 1240.836 0.02070
-0.15710 0.03676 0.59985 0.62117 0.29916 1.134 1240.866 0.02073
-0.15729 0.03681 0.60058 0.62192 0.30105 1.281 1240.896 0.02075
-0.15748 0.03685 0.60130 0.62267 0.30293 1.215 1240.926 0.02078
-0.15767 0.03689 0.60202 0.62342 0.30482 1.059 1240.956 0.02080
-0.15786 0.03694 0.60274 0.62417 0.30671 1.137 1240.986 0.02082
-0.15805 0.03698 0.60347 0.62491 0.30859 0.966 1241.016 0.02085
-0.15824 0.03703 0.60419 0.62566 0.31048 1.377 1241.045 0.02087
-0.15843 0.03707 0.60491 0.62641 0.31237 0.859 1241.075 0.02090
-0.15862 0.03712 0.60563 0.62716 0.31426 1.015 1241.105 0.02092
-0.15881 0.03716 0.60636 0.62791 0.31614 1.327 1241.135 0.02095
-0.15899 0.03720 0.60708 0.62866 0.31803 1.169 1241.165 0.02097
-0.15918 0.03725 0.60780 0.62940 0.31992 1.171 1241.195 0.02100
-0.15937 0.03729 0.60852 0.63015 0.32181 0.814 1241.225 0.02102
-0.15956 0.03734 0.60925 0.63090 0.32369 1.538 1241.255 0.02105
-0.15975 0.03738 0.60997 0.63165 0.32558 1.073 1241.285 0.02107
-0.15994 0.03743 0.61069 0.63240 0.32747 0.970 1241.314 0.02109
-0.16013 0.03747 0.61141 0.63315 0.32936 0.868 1241.344 0.02112
-0.16032 0.03751 0.61214 0.63389 0.33125 0.920 1241.374 0.02114
-0.16051 0.03756 0.61286 0.63464 0.33313 1.231 1241.404 0.02117
-0.16070 0.03760 0.61358 0.63539 0.33502 0.977 1241.434 0.02119
-0.16089 0.03765 0.61431 0.63614 0.33691 0.820 1241.464 0.02122
-0.16108 0.03769 0.61503 0.63689 0.33880 0.920 1241.494 0.02124
-0.16127 0.03774 0.61575 0.63764 0.34069 0.818 1241.524 0.02127
-0.16146 0.03778 0.61647 0.63838 0.34258 0.716 1241.553 0.02129
-0.16164 0.03782 0.61720 0.63913 0.34446 0.973 1241.583 0.02132
-0.16183 0.03787 0.61792 0.63988 0.34635 1.281 1241.613 0.02134
-0.16202 0.03791 0.61864 0.64063 0.34824 1.077 1241.643 0.02137
-0.16221 0.03796 0.61937 0.64138 0.35013 0.869 1241.673 0.02139
-0.16240 0.03800 0.62009 0.64213 0.35202 1.077 1241.703 0.02141
-0.16259 0.03805 0.62081 0.64288 0.35391 1.087 1241.733 0.02144
-0.16278 0.03809 0.62153 0.64363 0.35580 1.073 1241.763 0.02146
-0.16297 0.03813 0.62226 0.64437 0.35769 0.742 1241.792 0.02149
-0.16316 0.03818 0.62298 0.64512 0.35957 1.327 1241.822 0.02151
-0.16335 0.03822 0.62370 0.64587 0.36146 0.742 1241.852 0.02154
-0.16354 0.03827 0.62443 0.64662 0.36335 0.965 1241.882 0.02156
-0.16373 0.03831 0.62515 0.64737 0.36524 1.006 1241.912 0.02159
-0.16392 0.03836 0.62587 0.64812 0.36713 0.848 1241.942 0.02161
-0.16411 0.03840 0.62660 0.64887 0.36902 0.942 1241.972 0.02164
-0.16430 0.03844 0.62732 0.64962 0.37091 1.151 1242.002 0.02166
-0.16449 0.03849 0.62804 0.65037 0.37280 0.920 1242.031 0.02168
-0.16467 0.03853 0.62877 0.65111 0.37469 1.108 1242.061 0.02171
-0.16486 0.03858 0.62949 0.65186 0.37658 1.323 1242.091 0.02173
-0.16505 0.03862 0.63021 0.65261 0.37847 0.928 1242.121 0.02176
-0.16524 0.03867 0.63094 0.65336 0.38036 1.467 1242.151 0.02178
-0.16543 0.03871 0.63166 0.65411 0.38225 1.085 1242.181 0.02181
-0.16562 0.03875 0.63238 0.65486 0.38414 1.136 1242.211 0.02183
-0.16581 0.03880 0.63311 0.65561 0.38603 1.496 1242.241 0.02186
-0.16600 0.03884 0.63383 0.65636 0.38792 0.977 1242.271 0.02188
-0.16619 0.03889 0.63455 0.65711 0.38981 0.926 1242.300 0.02191
-0.16638 0.03893 0.63528 0.65786 0.39170 0.879 1242.330 0.02193
-0.16657 0.03898 0.63600 0.65861 0.39359 1.287 1242.360 0.02196
-0.16676 0.03902 0.63673 0.65936 0.39548 0.973 1242.390 0.02198
-0.16695 0.03907 0.63745 0.66011 0.39737 0.764 1242.420 0.02200
-0.16714 0.03911 0.63817 0.66085 0.39926 1.126 1242.450 0.02203
-0.16733 0.03915 0.63890 0.66160 0.40115 0.973 1242.480 0.02205
-0.16752 0.03920 0.63962 0.66235 0.40304 1.075 1242.510 0.02208
-0.16771 0.03924 0.64034 0.66310 0.40493 1.077 1242.539 0.02210
-0.16790 0.03929 0.64107 0.66385 0.40682 1.124 1242.569 0.02213
-0.16809 0.03933 0.64179 0.66460 0.40871 0.508 1242.599 0.02215
-0.16828 0.03938 0.64252 0.66535 0.41060 0.764 1242.629 0.02218
-0.16847 0.03942 0.64324 0.66610 0.41249 0.659 1242.659 0.02220
-0.16865 0.03946 0.64396 0.66685 0.41438 1.229 1242.689 0.02223
-0.16884 0.03951 0.64469 0.66760 0.41628 0.296 1242.719 0.02225
-0.16903 0.03955 0.64541 0.66835 0.41817 0.551 1242.749 0.02227
-0.16922 0.03960 0.64613 0.66910 0.42006 0.503 1242.778 0.02230
-0.16941 0.03964 0.64686 0.66985 0.42195 0.916 1242.808 0.02232
-0.16960 0.03969 0.64758 0.67060 0.42384 1.380 1242.838 0.02235
-0.16979 0.03973 0.64831 0.67135 0.42573 0.810 1242.868 0.02237
-0.16998 0.03978 0.64903 0.67210 0.42762 1.020 1242.898 0.02240
-0.17017 0.03982 0.64975 0.67285 0.42951 0.919 1242.928 0.02242
-0.17036 0.03986 0.65048 0.67360 0.43141 0.764 1242.958 0.02245
-0.17055 0.03991 0.65120 0.67435 0.43330 0.914 1242.988 0.02247
-0.17074 0.03995 0.65193 0.67510 0.43519 0.964 1243.017 0.02250
-0.17093 0.04000 0.65265 0.67585 0.43708 0.606 1243.047 0.02252
-0.17112 0.04004 0.65338 0.67660 0.43897 1.323 1243.077 0.02254
-0.17131 0.04009 0.65410 0.67735 0.44087 0.859 1243.107 0.02257
-0.17150 0.04013 0.65482 0.67810 0.44276 1.015 1243.137 0.02259
-0.17169 0.04017 0.65555 0.67885 0.44465 1.223 1243.167 0.02262
-0.17188 0.04022 0.65627 0.67960 0.44654 0.602 1243.197 0.02264
-0.17207 0.04026 0.65700 0.68035 0.44843 1.164 1243.227 0.02267
-0.17226 0.04031 0.65772 0.68110 0.45033 0.909 1243.257 0.02269
-0.17245 0.04035 0.65845 0.68185 0.45222 1.167 1243.286 0.02272
-0.17264 0.04040 0.65917 0.68260 0.45411 1.267 1243.316 0.02274
-0.17283 0.04044 0.65989 0.68335 0.45600 0.751 1243.346 0.02277
-0.17302 0.04049 0.66062 0.68410 0.45790 1.013 1243.376 0.02279
-0.17321 0.04053 0.66134 0.68485 0.45979 1.170 1243.406 0.02282
-0.17340 0.04057 0.66207 0.68560 0.46168 0.964 1243.436 0.02284
-0.17359 0.04062 0.66279 0.68635 0.46357 1.171 1243.466 0.02286
-0.17378 0.04066 0.66352 0.68710 0.46547 1.323 1243.496 0.02289
-0.17397 0.04071 0.66424 0.68785 0.46736 1.014 1243.525 0.02291
-0.17416 0.04075 0.66497 0.68860 0.46925 0.862 1243.555 0.02294
-0.17435 0.04080 0.66569 0.68935 0.47114 0.603 1243.585 0.02296
-0.17454 0.04084 0.66642 0.69010 0.47304 0.807 1243.615 0.02299
-0.17473 0.04089 0.66714 0.69085 0.47493 1.114 1243.645 0.02301
-0.17491 0.04093 0.66787 0.69160 0.47682 1.267 1243.675 0.02304
-0.17510 0.04097 0.66859 0.69235 0.47872 1.062 1243.705 0.02306
-0.17529 0.04102 0.66931 0.69310 0.48061 0.702 1243.735 0.02309
-0.17548 0.04106 0.67004 0.69385 0.48250 0.906 1243.764 0.02311
-0.17567 0.04111 0.67076 0.69461 0.48440 0.799 1243.794 0.02313
-0.17586 0.04115 0.67149 0.69536 0.48629 0.960 1243.824 0.02316
-0.17605 0.04120 0.67221 0.69611 0.48818 1.065 1243.854 0.02318
-0.17624 0.04124 0.67294 0.69686 0.49008 0.703 1243.884 0.02321
-0.17643 0.04128 0.67366 0.69761 0.49197 1.061 1243.914 0.02323
-0.17662 0.04133 0.67439 0.69836 0.49387 1.267 1243.944 0.02326
-0.17681 0.04137 0.67511 0.69911 0.49576 1.780 1243.974 0.02328
-0.17700 0.04142 0.67584 0.69986 0.49765 0.854 1244.003 0.02331
-0.17719 0.04146 0.67656 0.70061 0.49955 1.370 1244.033 0.02333
-0.17738 0.04151 0.67729 0.70136 0.50144 1.421 1244.063 0.02336
-0.17757 0.04155 0.67801 0.70211 0.50334 1.520 1244.093 0.02338
-0.17776 0.04160 0.67874 0.70286 0.50523 0.695 1244.123 0.02341
-0.17795 0.04164 0.67946 0.70361 0.50712 0.640 1244.153 0.02343
-0.17814 0.04168 0.68019 0.70437 0.50902 1.416 1244.183 0.02345
-0.17833 0.04173 0.68091 0.70512 0.51091 0.848 1244.213 0.02348
-0.17852 0.04177 0.68164 0.70587 0.51281 0.696 1244.243 0.02350
-0.17871 0.04182 0.68237 0.70662 0.51470 0.335 1244.272 0.02353
-0.17890 0.04186 0.68309 0.70737 0.51660 0.383 1244.302 0.02355
-0.17909 0.04191 0.68382 0.70812 0.51849 0.230 1244.332 0.02358
-0.17928 0.04195 0.68454 0.70887 0.52039 0.231 1244.362 0.02360
-0.17947 0.04200 0.68527 0.70962 0.52228 0.128 1244.392 0.02363
-0.17966 0.04204 0.68599 0.71037 0.52418 0.089 1244.422 0.02365
-0.17985 0.04208 0.68672 0.71112 0.52607 -0.076 1244.452 0.02368
-0.18004 0.04213 0.68744 0.71188 0.52797 0.130 1244.482 0.02370
-0.18023 0.04217 0.68817 0.71263 0.52986 0.077 1244.511 0.02372
-0.18042 0.04222 0.68889 0.71338 0.53176 0.192 1244.541 0.02375
-0.18061 0.04226 0.68962 0.71413 0.53365 0.401 1244.571 0.02377
-0.18080 0.04231 0.69034 0.71488 0.53555 0.252 1244.601 0.02380
-0.18099 0.04235 0.69107 0.71563 0.53744 1.045 1244.631 0.02382
-0.18118 0.04240 0.69180 0.71638 0.53934 1.157 1244.661 0.02385
-0.18137 0.04244 0.69252 0.71714 0.54123 0.964 1244.691 0.02387
-0.18156 0.04248 0.69325 0.71789 0.54313 1.224 1244.721 0.02390
-0.18175 0.04253 0.69397 0.71864 0.54502 0.782 1244.750 0.02392
-0.18194 0.04257 0.69470 0.71939 0.54692 0.453 1244.780 0.02395
-0.18213 0.04262 0.69542 0.72014 0.54882 1.011 1244.810 0.02397
-0.18232 0.04266 0.69615 0.72089 0.55071 1.158 1244.840 0.02400
-0.18251 0.04271 0.69688 0.72164 0.55261 1.157 1244.870 0.02402
-0.18270 0.04275 0.69760 0.72240 0.55450 1.106 1244.900 0.02404
-0.18289 0.04280 0.69833 0.72315 0.55640 1.004 1244.930 0.02407
-0.18308 0.04284 0.69905 0.72390 0.55829 0.901 1244.960 0.02409
-0.18327 0.04289 0.69978 0.72465 0.56019 0.953 1244.989 0.02412
-0.18346 0.04293 0.70050 0.72540 0.56209 1.416 1245.019 0.02414
-0.18365 0.04297 0.70123 0.72615 0.56398 1.216 1245.049 0.02417
-0.18384 0.04302 0.70196 0.72691 0.56588 0.854 1245.079 0.02419
-0.18403 0.04306 0.70268 0.72766 0.56778 0.906 1245.109 0.02422
-0.18422 0.04311 0.70341 0.72841 0.56967 0.755 1245.139 0.02424
-0.18441 0.04315 0.70413 0.72916 0.57157 0.906 1245.169 0.02427
-0.18460 0.04320 0.70486 0.72991 0.57347 0.747 1245.199 0.02429
-0.18479 0.04324 0.70559 0.73066 0.57536 0.801 1245.229 0.02431
-0.18498 0.04329 0.70631 0.73142 0.57726 1.105 1245.258 0.02434
-0.18517 0.04333 0.70704 0.73217 0.57916 0.493 1245.288 0.02436
-0.18536 0.04337 0.70777 0.73292 0.58105 0.801 1245.318 0.02439
-0.18555 0.04342 0.70849 0.73367 0.58295 1.264 1245.348 0.02441
-0.18575 0.04346 0.70922 0.73442 0.58485 1.472 1245.378 0.02444
