x y z dist_scaled dist_frac flux_norm wavelength redshift
0.06053 -0.02207 0.49844 0.50258 0.00000 0.928 1236.115 0.01682
0.06062 -0.02210 0.49917 0.50333 0.00188 0.673 1236.145 0.01684
0.06071 -0.02214 0.49991 0.50407 0.00375 0.864 1236.175 0.01687
0.06080 -0.02217 0.50065 0.50481 0.00563 0.610 1236.205 0.01689
0.06089 -0.02220 0.50139 0.50556 0.00751 0.866 1236.235 0.01692
0.06098 -0.02223 0.50212 0.50630 0.00938 0.932 1236.265 0.01694
0.06107 -0.02227 0.50286 0.50705 0.01126 1.062 1236.295 0.01697
0.06116 -0.02230 0.50360 0.50779 0.01313 0.741 1236.325 0.01699
0.06125 -0.02233 0.50434 0.50853 0.01501 1.062 1236.355 0.01701
0.06134 -0.02237 0.50508 0.50928 0.01689 0.872 1236.384 0.01704
0.06143 -0.02240 0.50581 0.51002 0.01876 1.321 1236.414 0.01706
0.06152 -0.02243 0.50655 0.51077 0.02064 0.810 1236.444 0.01709
0.06160 -0.02246 0.50729 0.51151 0.02252 0.936 1236.474 0.01711
0.06169 -0.02250 0.50803 0.51225 0.02440 0.998 1236.504 0.01714
0.06178 -0.02253 0.50876 0.51300 0.02627 0.484 1236.534 0.01716
0.06187 -0.02256 0.50950 0.51374 0.02815 1.127 1236.564 0.01719
0.06196 -0.02259 0.51024 0.51449 0.03003 1.319 1236.594 0.01721
0.06205 -0.02263 0.51098 0.51523 0.03190 0.676 1236.623 0.01724
0.06214 -0.02266 0.51172 0.51597 0.03378 1.451 1236.653 0.01726
0.06223 -0.02269 0.51245 0.51672 0.03566 0.611 1236.683 0.01729
0.06232 -0.02272 0.51319 0.51746 0.03754 0.805 1236.713 0.01731
0.06241 -0.02276 0.51393 0.51821 0.03941 1.000 1236.743 0.01733
0.06250 -0.02279 0.51467 0.51895 0.04129 0.871 1236.773 0.01736
0.06259 -0.02282 0.51541 0.51970 0.04317 1.259 1236.803 0.01738
0.06268 -0.02286 0.51615 0.52044 0.04505 0.872 1236.833 0.01741
0.06277 -0.02289 0.51688 0.52118 0.04692 0.744 1236.862 0.01743
0.06286 -0.02292 0.51762 0.52193 0.04880 1.391 1236.892 0.01746
0.06295 -0.02295 0.51836 0.52267 0.05068 1.393 1236.922 0.01748
0.06304 -0.02299 0.51910 0.52342 0.05256 0.688 1236.952 0.01751
0.06313 -0.02302 0.51984 0.52416 0.05444 1.092 1236.982 0.01753
0.06322 -0.02305 0.52058 0.52491 0.05631 1.133 1237.012 0.01756
0.06331 -0.02308 0.52131 0.52565 0.05819 1.181 1237.042 0.01758
0.06340 -0.02312 0.52205 0.52640 0.06007 1.642 1237.072 0.01760
0.06349 -0.02315 0.52279 0.52714 0.06195 1.045 1237.101 0.01763
0.06358 -0.02318 0.52353 0.52788 0.06383 0.941 1237.131 0.01765
0.06367 -0.02322 0.52427 0.52863 0.06571 1.041 1237.161 0.01768
0.06376 -0.02325 0.52501 0.52937 0.06758 1.263 1237.191 0.01770
0.06385 -0.02328 0.52574 0.53012 0.06946 1.278 1237.221 0.01773
0.06394 -0.02331 0.52648 0.53086 0.07134 1.117 1237.251 0.01775
0.06403 -0.02335 0.52722 0.53161 0.07322 1.103 1237.281 0.01778
0.06412 -0.02338 0.52796 0.53235 0.07510 0.727 1237.311 0.01780
0.06420 -0.02341 0.52870 0.53310 0.07698 1.324 1237.341 0.01783
0.06429 -0.02344 0.52944 0.53384 0.07886 1.283 1237.370 0.01785
0.06438 -0.02348 0.53018 0.53459 0.08074 1.046 1237.400 0.01788
0.06447 -0.02351 0.53092 0.53533 0.08261 0.947 1237.430 0.01790
0.06456 -0.02354 0.53165 0.53608 0.08449 1.611 1237.460 0.01792
0.06465 -0.02358 0.53239 0.53682 0.08637 0.677 1237.490 0.01795
0.06474 -0.02361 0.53313 0.53757 0.08825 0.881 1237.520 0.01797
0.06483 -0.02364 0.53387 0.53831 0.09013 1.021 1237.550 0.01800
0.06492 -0.02367 0.53461 0.53906 0.09201 0.842 1237.580 0.01802
0.06501 -0.02371 0.53535 0.53980 0.09389 1.463 1237.609 0.01805
0.06510 -0.02374 0.53609 0.54055 0.09577 1.177 1237.639 0.01807
0.06519 -0.02377 0.53683 0.54129 0.09765 1.044 1237.669 0.01810
0.06528 -0.02380 0.53757 0.54204 0.09953 0.874 1237.699 0.01812
0.06537 -0.02384 0.53830 0.54278 0.10141 1.015 1237.729 0.01815
0.06546 -0.02387 0.53904 0.54353 0.10329 1.282 1237.759 0.01817
0.06555 -0.02390 0.53978 0.54427 0.10517 1.013 1237.789 0.01819
0.06564 -0.02394 0.54052 0.54502 0.10705 1.228 1237.819 0.01822
0.06573 -0.02397 0.54126 0.54576 0.10893 0.723 1237.848 0.01824
0.06582 -0.02400 0.54200 0.54651 0.11081 0.950 1237.878 0.01827
0.06591 -0.02403 0.54274 0.54725 0.11269 1.164 1237.908 0.01829
0.06600 -0.02407 0.54348 0.54800 0.11457 1.459 1237.938 0.01832
0.06609 -0.02410 0.54422 0.54874 0.11645 1.116 1237.968 0.01834
0.06618 -0.02413 0.54496 0.54949 0.11833 0.791 1237.998 0.01837
0.06627 -0.02416 0.54570 0.55024 0.12021 0.637 1238.028 0.01839
0.06636 -0.02420 0.54644 0.55098 0.12209 0.696 1238.058 0.01842
0.06645 -0.02423 0.54717 0.55173 0.12397 1.224 1238.087 0.01844
0.06654 -0.02426 0.54791 0.55247 0.12585 1.157 1238.117 0.01847
0.06663 -0.02430 0.54865 0.55322 0.12773 0.895 1238.147 0.01849
0.06672 -0.02433 0.54939 0.55396 0.12961 1.028 1238.177 0.01851
0.06681 -0.02436 0.55013 0.55471 0.13149 0.303 1238.207 0.01854
0.06690 -0.02439 0.55087 0.55545 0.13338 1.094 1238.237 0.01856
0.06699 -0.02443 0.55161 0.55620 0.13526 0.766 1238.267 0.01859
0.06708 -0.02446 0.55235 0.55695 0.13714 1.165 1238.297 0.01861
0.06717 -0.02449 0.55309 0.55769 0.13902 0.837 1238.327 0.01864
0.06726 -0.02452 0.55383 0.55844 0.14090 1.098 1238.356 0.01866
0.06735 -0.02456 0.55457 0.55918 0.14278 0.968 1238.386 0.01869
0.06744 -0.02459 0.55531 0.55993 0.14466 0.902 1238.416 0.01871
0.06753 -0.02462 0.55605 0.56067 0.14654 1.233 1238.446 0.01874
0.06762 -0.02466 0.55679 0.56142 0.14843 1.171 1238.476 0.01876
0.06771 -0.02469 0.55753 0.56217 0.15031 0.774 1238.506 0.01878
0.06780 -0.02472 0.55827 0.56291 0.15219 0.310 1238.536 0.01881
0.06789 -0.02475 0.55901 0.56366 0.15407 0.774 1238.566 0.01883
0.06798 -0.02479 0.55975 0.56440 0.15595 0.576 1238.595 0.01886
0.06807 -0.02482 0.56049 0.56515 0.15783 0.576 1238.625 0.01888
0.06815 -0.02485 0.56123 0.56590 0.15972 0.710 1238.655 0.01891
0.06824 -0.02488 0.56197 0.56664 0.16160 0.643 1238.685 0.01893
0.06833 -0.02492 0.56271 0.56739 0.16348 0.311 1238.715 0.01896
0.06842 -0.02495 0.56345 0.56813 0.16536 0.443 1238.745 0.01898
0.06851 -0.02498 0.56419 0.56888 0.16724 0.510 1238.775 0.01901
0.06860 -0.02502 0.56493 0.56963 0.16913 0.377 1238.805 0.01903
0.06869 -0.02505 0.56567 0.57037 0.17101 0.774 1238.834 0.01905
0.06878 -0.02508 0.56641 0.57112 0.17289 0.975 1238.864 0.01908
0.06887 -0.02511 0.56715 0.57186 0.17477 0.574 1238.894 0.01910
0.06896 -0.02515 0.56789 0.57261 0.17665 0.440 1238.924 0.01913
0.06905 -0.02518 0.56863 0.57336 0.17854 0.838 1238.954 0.01915
0.06914 -0.02521 0.56937 0.57410 0.18042 0.837 1238.984 0.01918
0.06923 -0.02525 0.57011 0.57485 0.18230 1.369 1239.014 0.01920
0.06932 -0.02528 0.57085 0.57560 0.18419 0.770 1239.044 0.01923
0.06941 -0.02531 0.57159 0.57634 0.18607 0.702 1239.073 0.01925
0.06950 -0.02534 0.57233 0.57709 0.18795 0.702 1239.103 0.01928
0.06959 -0.02538 0.57307 0.57784 0.18983 0.501 1239.133 0.01930
0.06968 -0.02541 0.57381 0.57858 0.19172 0.634 1239.163 0.01933
0.06977 -0.02544 0.57455 0.57933 0.19360 0.701 1239.193 0.01935
0.06986 -0.02547 0.57529 0.58007 0.19548 0.502 1239.223 0.01937
0.06995 -0.02551 0.57603 0.58082 0.19737 1.104 1239.253 0.01940
0.07004 -0.02554 0.57677 0.58157 0.19925 0.769 1239.283 0.01942
0.07013 -0.02557 0.57751 0.58231 0.20113 0.702 1239.313 0.01945
0.07022 -0.02561 0.57825 0.58306 0.20302 0.837 1239.342 0.01947
0.07031 -0.02564 0.57899 0.58381 0.20490 1.105 1239.372 0.01950
0.07040 -0.02567 0.57973 0.58455 0.20678 0.706 1239.402 0.01952
0.07049 -0.02570 0.58047 0.58530 0.20867 0.641 1239.432 0.01955
0.07058 -0.02574 0.58121 0.58605 0.21055 0.973 1239.462 0.01957
0.07067 -0.02577 0.58195 0.58679 0.21243 1.374 1239.492 0.01960
0.07076 -0.02580 0.58269 0.58754 0.21432 1.305 1239.522 0.01962
0.07085 -0.02584 0.58343 0.58829 0.21620 0.769 1239.552 0.01964
0.07094 -0.02587 0.58417 0.58904 0.21809 1.238 1239.581 0.01967
0.07103 -0.02590 0.58492 0.58978 0.21997 1.441 1239.611 0.01969
0.07112 -0.02593 0.58566 0.59053 0.22185 0.705 1239.641 0.01972
0.07121 -0.02597 0.58640 0.59128 0.22374 1.709 1239.671 0.01974
0.07130 -0.02600 0.58714 0.59202 0.22562 1.308 1239.701 0.01977
0.07139 -0.02603 0.58788 0.59277 0.22751 0.634 1239.731 0.01979
0.07148 -0.02606 0.58862 0.59352 0.22939 0.366 1239.761 0.01982
0.07157 -0.02610 0.58936 0.59426 0.23128 0.768 1239.791 0.01984
0.07166 -0.02613 0.59010 0.59501 0.23316 0.904 1239.820 0.01987
0.07175 -0.02616 0.59084 0.59576 0.23504 1.373 1239.850 0.01989
0.07184 -0.02620 0.59158 0.59650 0.23693 0.569 1239.880 0.01992
0.07193 -0.02623 0.59232 0.59725 0.23881 0.773 1239.910 0.01994
0.07202 -0.02626 0.59306 0.59800 0.24070 1.377 1239.940 0.01996
0.07211 -0.02629 0.59381 0.59875 0.24258 1.210 1239.970 0.01999
0.07220 -0.02633 0.59455 0.59949 0.24447 1.276 1240.000 0.02001
0.07229 -0.02636 0.59529 0.60024 0.24635 1.476 1240.030 0.02004
0.07238 -0.02639 0.59603 0.60099 0.24824 0.682 1240.059 0.02006
0.07247 -0.02643 0.59677 0.60174 0.25012 0.804 1240.089 0.02009
0.07256 -0.02646 0.59751 0.60248 0.25201 0.957 1240.119 0.02011
0.07265 -0.02649 0.59825 0.60323 0.25389 1.553 1240.149 0.02014
0.07274 -0.02652 0.59899 0.60398 0.25578 1.218 1240.179 0.02016
0.07283 -0.02656 0.59974 0.60472 0.25766 0.521 1240.209 0.02019
0.07292 -0.02659 0.60048 0.60547 0.25955 1.375 1240.239 0.02021
0.07301 -0.02662 0.60122 0.60622 0.26144 0.857 1240.269 0.02023
0.07310 -0.02666 0.60196 0.60697 0.26332 1.047 1240.299 0.02026
0.07319 -0.02669 0.60270 0.60771 0.26521 1.366 1240.328 0.02028
0.07328 -0.02672 0.60344 0.60846 0.26709 1.405 1240.358 0.02031
0.07337 -0.02675 0.60418 0.60921 0.26898 0.792 1240.388 0.02033
0.07346 -0.02679 0.60492 0.60996 0.27086 0.974 1240.418 0.02036
0.07355 -0.02682 0.60567 0.61070 0.27275 1.048 1240.448 0.02038
0.07364 -0.02685 0.60641 0.61145 0.27464 0.982 1240.478 0.02041
0.07373 -0.02689 0.60715 0.61220 0.27652 1.108 1240.508 0.02043
0.07382 -0.02692 0.60789 0.61295 0.27841 0.570 1240.538 0.02046
0.07391 -0.02695 0.60863 0.61370 0.28029 1.373 1240.567 0.02048
0.07400 -0.02698 0.60937 0.61444 0.28218 0.903 1240.597 0.02050
0.07409 -0.02702 0.61011 0.61519 0.28407 0.968 1240.627 0.02053
0.07418 -0.02705 0.61086 0.61594 0.28595 0.902 1240.657 0.02055
0.07427 -0.02708 0.61160 0.61669 0.28784 0.700 1240.687 0.02058
0.07436 -0.02712 0.61234 0.61743 0.28973 0.430 1240.717 0.02060
0.07445 -0.02715 0.61308 0.61818 0.29161 0.766 1240.747 0.02063
0.07454 -0.02718 0.61382 0.61893 0.29350 0.832 1240.777 0.02065
0.07463 -0.02721 0.61456 0.61968 0.29539 0.497 1240.806 0.02068
0.07472 -0.02725 0.61531 0.62043 0.29727 0.162 1240.836 0.02070
0.07481 -0.02728 0.61605 0.62117 0.29916 0.298 1240.866 0.02073
0.07490 -0.02731 0.61679 0.62192 0.30105 0.162 1240.896 0.02075
0.07499 -0.02735 0.61753 0.62267 0.30293 0.095 1240.926 0.02078
0.07508 -0.02738 0.61827 0.62342 0.30482 0.231 1240.956 0.02080
0.07517 -0.02741 0.61902 0.62417 0.30671 0.029 1240.986 0.02082
0.07526 -0.02744 0.61976 0.62491 0.30859 0.029 1241.016 0.02085
0.07535 -0.02748 0.62050 0.62566 0.31048 -0.038 1241.045 0.02087
0.07544 -0.02751 0.62124 0.62641 0.31237 0.093 1241.075 0.02090
0.07553 -0.02754 0.62198 0.62716 0.31426 0.028 1241.105 0.02092
0.07562 -0.02758 0.62273 0.62791 0.31614 0.097 1241.135 0.02095
0.07571 -0.02761 0.62347 0.62866 0.31803 0.096 1241.165 0.02097
0.07580 -0.02764 0.62421 0.62940 0.31992 0.027 1241.195 0.02100
0.07589 -0.02767 0.62495 0.63015 0.32181 0.094 1241.225 0.02102
0.07598 -0.02771 0.62569 0.63090 0.32369 0.296 1241.255 0.02105
0.07607 -0.02774 0.62644 0.63165 0.32558 0.697 1241.285 0.02107
0.07616 -0.02777 0.62718 0.63240 0.32747 0.765 1241.314 0.02109
0.07625 -0.02781 0.62792 0.63315 0.32936 0.765 1241.344 0.02112
0.07634 -0.02784 0.62866 0.63389 0.33125 0.633 1241.374 0.02114
0.07643 -0.02787 0.62941 0.63464 0.33313 0.231 1241.404 0.02117
0.07652 -0.02790 0.63015 0.63539 0.33502 0.097 1241.434 0.02119
0.07661 -0.02794 0.63089 0.63614 0.33691 0.364 1241.464 0.02122
0.07670 -0.02797 0.63163 0.63689 0.33880 -0.035 1241.494 0.02124
0.07680 -0.02800 0.63237 0.63764 0.34069 0.236 1241.524 0.02127
0.07689 -0.02804 0.63312 0.63838 0.34258 0.304 1241.553 0.02129
0.07698 -0.02807 0.63386 0.63913 0.34446 0.103 1241.583 0.02132
0.07707 -0.02810 0.63460 0.63988 0.34635 0.307 1241.613 0.02134
0.07716 -0.02813 0.63534 0.64063 0.34824 0.374 1241.643 0.02137
0.07725 -0.02817 0.63609 0.64138 0.35013 0.912 1241.673 0.02139
0.07734 -0.02820 0.63683 0.64213 0.35202 0.712 1241.703 0.02141
0.07743 -0.02823 0.63757 0.64288 0.35391 0.982 1241.733 0.02144
0.07752 -0.02827 0.63831 0.64363 0.35580 0.982 1241.763 0.02146
0.07761 -0.02830 0.63906 0.64437 0.35769 0.846 1241.792 0.02149
0.07770 -0.02833 0.63980 0.64512 0.35957 1.447 1241.822 0.02151
0.07779 -0.02836 0.64054 0.64587 0.36146 0.976 1241.852 0.02154
0.07788 -0.02840 0.64129 0.64662 0.36335 0.843 1241.882 0.02156
0.07797 -0.02843 0.64203 0.64737 0.36524 0.776 1241.912 0.02159
0.07806 -0.02846 0.64277 0.64812 0.36713 0.909 1241.942 0.02161
0.07815 -0.02850 0.64351 0.64887 0.36902 0.906 1241.972 0.02164
0.07824 -0.02853 0.64426 0.64962 0.37091 1.040 1242.002 0.02166
0.07833 -0.02856 0.64500 0.65037 0.37280 0.639 1242.031 0.02168
0.07842 -0.02859 0.64574 0.65111 0.37469 0.842 1242.061 0.02171
0.07851 -0.02863 0.64649 0.65186 0.37658 1.110 1242.091 0.02173
0.07860 -0.02866 0.64723 0.65261 0.37847 1.310 1242.121 0.02176
0.07869 -0.02869 0.64797 0.65336 0.38036 1.378 1242.151 0.02178
0.07878 -0.02873 0.64871 0.65411 0.38225 1.109 1242.181 0.02181
0.07887 -0.02876 0.64946 0.65486 0.38414 1.514 1242.211 0.02183
0.07896 -0.02879 0.65020 0.65561 0.38603 0.708 1242.241 0.02186
0.07905 -0.02882 0.65094 0.65636 0.38792 0.777 1242.271 0.02188
0.07914 -0.02886 0.65169 0.65711 0.38981 1.111 1242.300 0.02191
0.07923 -0.02889 0.65243 0.65786 0.39170 1.179 1242.330 0.02193
0.07932 -0.02892 0.65317 0.65861 0.39359 1.312 1242.360 0.02196
0.07941 -0.02896 0.65392 0.65936 0.39548 1.041 1242.390 0.02198
0.07950 -0.02899 0.65466 0.66011 0.39737 1.310 1242.420 0.02200
0.07959 -0.02902 0.65540 0.66085 0.39926 0.978 1242.450 0.02203
0.07968 -0.02905 0.65615 0.66160 0.40115 1.311 1242.480 0.02205
0.07977 -0.02909 0.65689 0.66235 0.40304 1.109 1242.510 0.02208
0.07986 -0.02912 0.65763 0.66310 0.40493 1.322 1242.539 0.02210
0.07995 -0.02915 0.65838 0.66385 0.40682 1.023 1242.569 0.02213
0.08004 -0.02919 0.65912 0.66460 0.40871 1.062 1242.599 0.02215
0.08013 -0.02922 0.65986 0.66535 0.41060 0.920 1242.629 0.02218
0.08022 -0.02925 0.66061 0.66610 0.41249 1.106 1242.659 0.02220
0.08031 -0.02929 0.66135 0.66685 0.41438 0.589 1242.689 0.02223
0.08040 -0.02932 0.66209 0.66760 0.41628 0.640 1242.719 0.02225
0.08049 -0.02935 0.66284 0.66835 0.41817 1.210 1242.749 0.02227
0.08058 -0.02938 0.66358 0.66910 0.42006 1.345 1242.778 0.02230
0.08067 -0.02942 0.66432 0.66985 0.42195 0.923 1242.808 0.02232
0.08077 -0.02945 0.66507 0.67060 0.42384 0.539 1242.838 0.02235
0.08086 -0.02948 0.66581 0.67135 0.42573 0.460 1242.868 0.02237
0.08095 -0.02952 0.66655 0.67210 0.42762 1.151 1242.898 0.02240
0.08104 -0.02955 0.66730 0.67285 0.42951 1.663 1242.928 0.02242
0.08113 -0.02958 0.66804 0.67360 0.43141 1.319 1242.958 0.02245
0.08122 -0.02961 0.66878 0.67435 0.43330 1.104 1242.988 0.02247
0.08131 -0.02965 0.66953 0.67510 0.43519 1.148 1243.017 0.02250
0.08140 -0.02968 0.67027 0.67585 0.43708 1.620 1243.047 0.02252
0.08149 -0.02971 0.67102 0.67660 0.43897 0.708 1243.077 0.02254
0.08158 -0.02975 0.67176 0.67735 0.44087 0.974 1243.107 0.02257
0.08167 -0.02978 0.67250 0.67810 0.44276 0.441 1243.137 0.02259
0.08176 -0.02981 0.67325 0.67885 0.44465 1.174 1243.167 0.02262
0.08185 -0.02985 0.67399 0.67960 0.44654 1.108 1243.197 0.02264
0.08194 -0.02988 0.67473 0.68035 0.44843 0.840 1243.227 0.02267
0.08203 -0.02991 0.67548 0.68110 0.45033 1.175 1243.257 0.02269
0.08212 -0.02994 0.67622 0.68185 0.45222 1.375 1243.286 0.02272
0.08221 -0.02998 0.67697 0.68260 0.45411 1.171 1243.316 0.02274
0.08230 -0.03001 0.67771 0.68335 0.45600 0.838 1243.346 0.02277
0.08239 -0.03004 0.67845 0.68410 0.45790 1.571 1243.376 0.02279
0.08248 -0.03008 0.67920 0.68485 0.45979 1.105 1243.406 0.02282
0.08257 -0.03011 0.67994 0.68560 0.46168 0.904 1243.436 0.02284
0.08266 -0.03014 0.68069 0.68635 0.46357 0.703 1243.466 0.02286
0.08275 -0.03017 0.68143 0.68710 0.46547 1.235 1243.496 0.02289
0.08284 -0.03021 0.68218 0.68785 0.46736 0.971 1243.525 0.02291
0.08293 -0.03024 0.68292 0.68860 0.46925 0.703 1243.555 0.02294
0.08302 -0.03027 0.68366 0.68935 0.47114 0.904 1243.585 0.02296
0.08311 -0.03031 0.68441 0.69010 0.47304 1.169 1243.615 0.02299
0.08320 -0.03034 0.68515 0.69085 0.47493 0.569 1243.645 0.02301
0.08329 -0.03037 0.68590 0.69160 0.47682 0.835 1243.675 0.02304
0.08339 -0.03041 0.68664 0.69235 0.47872 0.833 1243.705 0.02306
0.08348 -0.03044 0.68739 0.69310 0.48061 0.901 1243.735 0.02309
0.08357 -0.03047 0.68813 0.69385 0.48250 0.698 1243.764 0.02311
0.08366 -0.03050 0.68887 0.69461 0.48440 0.766 1243.794 0.02313
0.08375 -0.03054 0.68962 0.69536 0.48629 0.964 1243.824 0.02316
0.08384 -0.03057 0.69036 0.69611 0.48818 0.900 1243.854 0.02318
0.08393 -0.03060 0.69111 0.69686 0.49008 1.029 1243.884 0.02321
0.08402 -0.03064 0.69185 0.69761 0.49197 0.964 1243.914 0.02323
0.08411 -0.03067 0.69260 0.69836 0.49387 1.027 1243.944 0.02326
0.08420 -0.03070 0.69334 0.69911 0.49576 1.030 1243.974 0.02328
0.08429 -0.03074 0.69409 0.69986 0.49765 1.161 1244.003 0.02331
0.08438 -0.03077 0.69483 0.70061 0.49955 0.698 1244.033 0.02333
0.08447 -0.03080 0.69557 0.70136 0.50144 1.300 1244.063 0.02336
0.08456 -0.03083 0.69632 0.70211 0.50334 0.833 1244.093 0.02338
0.08465 -0.03087 0.69706 0.70286 0.50523 1.233 1244.123 0.02341
0.08474 -0.03090 0.69781 0.70361 0.50712 1.231 1244.153 0.02343
0.08483 -0.03093 0.69855 0.70437 0.50902 1.495 1244.183 0.02345
0.08492 -0.03097 0.69930 0.70512 0.51091 1.162 1244.213 0.02348
0.08501 -0.03100 0.70004 0.70587 0.51281 1.163 1244.243 0.02350
0.08510 -0.03103 0.70079 0.70662 0.51470 0.633 1244.272 0.02353
0.08519 -0.03106 0.70153 0.70737 0.51660 1.098 1244.302 0.02355
0.08528 -0.03110 0.70228 0.70812 0.51849 1.033 1244.332 0.02358
0.08537 -0.03113 0.70302 0.70887 0.52039 0.967 1244.362 0.02360
0.08546 -0.03116 0.70377 0.70962 0.52228 0.700 1244.392 0.02363
0.08556 -0.03120 0.70451 0.71037 0.52418 0.899 1244.422 0.02365
0.08565 -0.03123 0.70526 0.71112 0.52607 1.163 1244.452 0.02368
0.08574 -0.03126 0.70600 0.71188 0.52797 1.098 1244.482 0.02370
0.08583 -0.03130 0.70675 0.71263 0.52986 0.966 1244.511 0.02372
0.08592 -0.03133 0.70749 0.71338 0.53176 0.965 1244.541 0.02375
0.08601 -0.03136 0.70824 0.71413 0.53365 0.900 1244.571 0.02377
0.08610 -0.03139 0.70898 0.71488 0.53555 0.571 1244.601 0.02380
0.08619 -0.03143 0.70973 0.71563 0.53744 1.231 1244.631 0.02382
0.08628 -0.03146 0.71047 0.71638 0.53934 0.637 1244.661 0.02385
0.08637 -0.03149 0.71122 0.71714 0.54123 0.503 1244.691 0.02387
0.08646 -0.03153 0.71196 0.71789 0.54313 0.836 1244.721 0.02390
0.08655 -0.03156 0.71271 0.71864 0.54502 0.505 1244.750 0.02392
0.08664 -0.03159 0.71345 0.71939 0.54692 0.305 1244.780 0.02395
0.08673 -0.03163 0.71420 0.72014 0.54882 0.303 1244.810 0.02397
0.08682 -0.03166 0.71494 0.72089 0.55071 0.436 1244.840 0.02400
0.08691 -0.03169 0.71569 0.72164 0.55261 0.434 1244.870 0.02402
0.08700 -0.03172 0.71644 0.72240 0.55450 0.567 1244.900 0.02404
0.08709 -0.03176 0.71718 0.72315 0.55640 0.568 1244.930 0.02407
0.08718 -0.03179 0.71793 0.72390 0.55829 0.434 1244.960 0.02409
0.08727 -0.03182 0.71867 0.72465 0.56019 1.033 1244.989 0.02412
0.08737 -0.03186 0.71942 0.72540 0.56209 0.832 1245.019 0.02414
0.08746 -0.03189 0.72016 0.72615 0.56398 0.762 1245.049 0.02417
0.08755 -0.03192 0.72091 0.72691 0.56588 1.427 1245.079 0.02419
0.08764 -0.03196 0.72165 0.72766 0.56778 0.824 1245.109 0.02422
0.08773 -0.03199 0.72240 0.72841 0.56967 1.222 1245.139 0.02424
0.08782 -0.03202 0.72315 0.72916 0.57157 0.958 1245.169 0.02427
0.08791 -0.03205 0.72389 0.72991 0.57347 0.893 1245.199 0.02429
0.08800 -0.03209 0.72464 0.73066 0.57536 0.960 1245.229 0.02431
0.08809 -0.03212 0.72538 0.73142 0.57726 0.960 1245.258 0.02434
0.08818 -0.03215 0.72613 0.73217 0.57916 1.294 1245.288 0.02436
0.08827 -0.03219 0.72687 0.73292 0.58105 0.586 1245.318 0.02439
0.08836 -0.03222 0.72762 0.73367 0.58295 0.769 1245.348 0.02441
0.08845 -0.03225 0.72837 0.73442 0.58485 1.149 1245.378 0.02444
