x y z dist_scaled dist_frac flux_norm wavelength redshift
0.12065 -0.02365 0.48689 0.50218 0.00000 0.965 1236.099 0.01680
0.12083 -0.02369 0.48762 0.50292 0.00188 0.960 1236.129 0.01683
0.12101 -0.02372 0.48834 0.50367 0.00375 1.035 1236.159 0.01685
0.12119 -0.02376 0.48906 0.50441 0.00563 0.950 1236.189 0.01688
0.12137 -0.02379 0.48978 0.50515 0.00750 1.011 1236.219 0.01690
0.12155 -0.02383 0.49050 0.50590 0.00938 1.012 1236.249 0.01693
0.12172 -0.02386 0.49122 0.50664 0.01126 0.929 1236.279 0.01695
0.12190 -0.02390 0.49194 0.50739 0.01313 1.020 1236.308 0.01698
0.12208 -0.02393 0.49267 0.50813 0.01501 1.004 1236.338 0.01700
0.12226 -0.02397 0.49339 0.50888 0.01689 1.041 1236.368 0.01703
0.12244 -0.02400 0.49411 0.50962 0.01876 1.037 1236.398 0.01705
0.12262 -0.02404 0.49483 0.51036 0.02064 1.022 1236.428 0.01708
0.12280 -0.02407 0.49555 0.51111 0.02252 1.002 1236.458 0.01710
0.12298 -0.02411 0.49627 0.51185 0.02440 0.970 1236.488 0.01712
0.12316 -0.02414 0.49700 0.51260 0.02627 1.023 1236.518 0.01715
0.12333 -0.02418 0.49772 0.51334 0.02815 1.024 1236.548 0.01717
0.12351 -0.02421 0.49844 0.51409 0.03003 1.076 1236.577 0.01720
0.12369 -0.02425 0.49916 0.51483 0.03190 1.120 1236.607 0.01722
0.12387 -0.02429 0.49988 0.51558 0.03378 1.069 1236.637 0.01725
0.12405 -0.02432 0.50061 0.51632 0.03566 0.997 1236.667 0.01727
0.12423 -0.02436 0.50133 0.51706 0.03754 0.975 1236.697 0.01730
0.12441 -0.02439 0.50205 0.51781 0.03941 0.992 1236.727 0.01732
0.12459 -0.02443 0.50277 0.51855 0.04129 1.005 1236.757 0.01735
0.12477 -0.02446 0.50349 0.51930 0.04317 1.014 1236.787 0.01737
0.12494 -0.02450 0.50422 0.52004 0.04505 0.994 1236.817 0.01740
0.12512 -0.02453 0.50494 0.52079 0.04692 0.987 1236.847 0.01742
0.12530 -0.02457 0.50566 0.52153 0.04880 0.943 1236.876 0.01744
0.12548 -0.02460 0.50638 0.52228 0.05068 1.016 1236.906 0.01747
0.12566 -0.02464 0.50710 0.52302 0.05256 0.990 1236.936 0.01749
0.12584 -0.02467 0.50783 0.52377 0.05444 1.021 1236.966 0.01752
0.12602 -0.02471 0.50855 0.52451 0.05631 1.017 1236.996 0.01754
0.12620 -0.02474 0.50927 0.52526 0.05819 1.024 1237.026 0.01757
0.12638 -0.02478 0.50999 0.52600 0.06007 1.021 1237.056 0.01759
0.12655 -0.02481 0.51071 0.52675 0.06195 1.003 1237.086 0.01762
0.12673 -0.02485 0.51144 0.52749 0.06383 1.002 1237.116 0.01764
0.12691 -0.02488 0.51216 0.52824 0.06571 1.009 1237.145 0.01767
0.12709 -0.02492 0.51288 0.52898 0.06758 0.952 1237.175 0.01769
0.12727 -0.02495 0.51360 0.52973 0.06946 0.992 1237.205 0.01771
0.12745 -0.02499 0.51433 0.53047 0.07134 1.008 1237.235 0.01774
0.12763 -0.02502 0.51505 0.53122 0.07322 0.964 1237.265 0.01776
0.12781 -0.02506 0.51577 0.53196 0.07510 0.976 1237.295 0.01779
0.12799 -0.02509 0.51649 0.53271 0.07698 0.988 1237.325 0.01781
0.12817 -0.02513 0.51722 0.53345 0.07886 1.017 1237.355 0.01784
0.12834 -0.02516 0.51794 0.53420 0.08074 0.978 1237.385 0.01786
0.12852 -0.02520 0.51866 0.53494 0.08261 0.999 1237.414 0.01789
0.12870 -0.02523 0.51938 0.53569 0.08449 0.976 1237.444 0.01791
0.12888 -0.02527 0.52011 0.53643 0.08637 1.006 1237.474 0.01794
0.12906 -0.02530 0.52083 0.53718 0.08825 1.040 1237.504 0.01796
0.12924 -0.02534 0.52155 0.53792 0.09013 0.981 1237.534 0.01799
0.12942 -0.02537 0.52227 0.53867 0.09201 1.006 1237.564 0.01801
0.12960 -0.02541 0.52300 0.53941 0.09389 0.963 1237.594 0.01803
0.12978 -0.02544 0.52372 0.54016 0.09577 1.030 1237.624 0.01806
0.12996 -0.02548 0.52444 0.54090 0.09765 1.035 1237.654 0.01808
0.13014 -0.02551 0.52517 0.54165 0.09953 0.997 1237.684 0.01811
0.13031 -0.02555 0.52589 0.54240 0.10141 1.022 1237.713 0.01813
0.13049 -0.02558 0.52661 0.54314 0.10329 0.961 1237.743 0.01816
0.13067 -0.02562 0.52733 0.54389 0.10517 0.993 1237.773 0.01818
0.13085 -0.02565 0.52806 0.54463 0.10705 1.030 1237.803 0.01821
0.13103 -0.02569 0.52878 0.54538 0.10893 1.016 1237.833 0.01823
0.13121 -0.02572 0.52950 0.54612 0.11081 1.017 1237.863 0.01826
0.13139 -0.02576 0.53023 0.54687 0.11269 1.055 1237.893 0.01828
0.13157 -0.02579 0.53095 0.54761 0.11457 1.001 1237.923 0.01830
0.13175 -0.02583 0.53167 0.54836 0.11645 1.021 1237.953 0.01833
0.13193 -0.02586 0.53239 0.54911 0.11833 0.973 1237.982 0.01835
0.13211 -0.02590 0.53312 0.54985 0.12021 0.973 1238.012 0.01838
0.13229 -0.02593 0.53384 0.55060 0.12209 0.974 1238.042 0.01840
0.13246 -0.02597 0.53456 0.55134 0.12397 0.950 1238.072 0.01843
0.13264 -0.02601 0.53529 0.55209 0.12585 0.993 1238.102 0.01845
0.13282 -0.02604 0.53601 0.55284 0.12773 1.040 1238.132 0.01848
0.13300 -0.02608 0.53673 0.55358 0.12961 1.042 1238.162 0.01850
0.13318 -0.02611 0.53746 0.55433 0.13149 0.989 1238.192 0.01853
0.13336 -0.02615 0.53818 0.55507 0.13337 0.990 1238.222 0.01855
0.13354 -0.02618 0.53890 0.55582 0.13526 0.964 1238.251 0.01858
0.13372 -0.02622 0.53963 0.55656 0.13714 0.990 1238.281 0.01860
0.13390 -0.02625 0.54035 0.55731 0.13902 1.041 1238.311 0.01862
0.13408 -0.02629 0.54107 0.55806 0.14090 1.032 1238.341 0.01865
0.13426 -0.02632 0.54180 0.55880 0.14278 1.012 1238.371 0.01867
0.13444 -0.02636 0.54252 0.55955 0.14466 0.941 1238.401 0.01870
0.13462 -0.02639 0.54324 0.56030 0.14654 0.993 1238.431 0.01872
0.13479 -0.02643 0.54397 0.56104 0.14842 0.957 1238.461 0.01875
0.13497 -0.02646 0.54469 0.56179 0.15031 0.983 1238.491 0.01877
0.13515 -0.02650 0.54541 0.56253 0.15219 0.976 1238.521 0.01880
0.13533 -0.02653 0.54614 0.56328 0.15407 0.947 1238.550 0.01882
0.13551 -0.02657 0.54686 0.56403 0.15595 1.001 1238.580 0.01885
0.13569 -0.02660 0.54758 0.56477 0.15783 0.924 1238.610 0.01887
0.13587 -0.02664 0.54831 0.56552 0.15971 0.892 1238.640 0.01889
0.13605 -0.02667 0.54903 0.56627 0.16160 0.887 1238.670 0.01892
0.13623 -0.02671 0.54976 0.56701 0.16348 0.898 1238.700 0.01894
0.13641 -0.02674 0.55048 0.56776 0.16536 0.950 1238.730 0.01897
0.13659 -0.02678 0.55120 0.56850 0.16724 0.856 1238.760 0.01899
0.13677 -0.02681 0.55193 0.56925 0.16912 0.891 1238.790 0.01902
0.13695 -0.02685 0.55265 0.57000 0.17101 0.907 1238.819 0.01904
0.13713 -0.02688 0.55337 0.57074 0.17289 0.863 1238.849 0.01907
0.13730 -0.02692 0.55410 0.57149 0.17477 0.915 1238.879 0.01909
0.13748 -0.02695 0.55482 0.57224 0.17665 0.904 1238.909 0.01912
0.13766 -0.02699 0.55555 0.57298 0.17854 0.876 1238.939 0.01914
0.13784 -0.02702 0.55627 0.57373 0.18042 0.894 1238.969 0.01917
0.13802 -0.02706 0.55699 0.57448 0.18230 0.893 1238.999 0.01919
0.13820 -0.02709 0.55772 0.57522 0.18418 0.944 1239.029 0.01921
0.13838 -0.02713 0.55844 0.57597 0.18607 0.977 1239.059 0.01924
0.13856 -0.02717 0.55916 0.57672 0.18795 0.899 1239.088 0.01926
0.13874 -0.02720 0.55989 0.57746 0.18983 0.856 1239.118 0.01929
0.13892 -0.02724 0.56061 0.57821 0.19172 0.829 1239.148 0.01931
0.13910 -0.02727 0.56134 0.57896 0.19360 0.907 1239.178 0.01934
0.13928 -0.02731 0.56206 0.57970 0.19548 0.873 1239.208 0.01936
0.13946 -0.02734 0.56279 0.58045 0.19737 0.825 1239.238 0.01939
0.13964 -0.02738 0.56351 0.58120 0.19925 0.845 1239.268 0.01941
0.13982 -0.02741 0.56423 0.58194 0.20113 0.836 1239.298 0.01944
0.14000 -0.02745 0.56496 0.58269 0.20302 0.909 1239.328 0.01946
0.14018 -0.02748 0.56568 0.58344 0.20490 0.901 1239.357 0.01949
0.14035 -0.02752 0.56641 0.58419 0.20678 0.978 1239.387 0.01951
0.14053 -0.02755 0.56713 0.58493 0.20867 0.953 1239.417 0.01953
0.14071 -0.02759 0.56785 0.58568 0.21055 0.943 1239.447 0.01956
0.14089 -0.02762 0.56858 0.58643 0.21243 0.924 1239.477 0.01958
0.14107 -0.02766 0.56930 0.58717 0.21432 0.955 1239.507 0.01961
0.14125 -0.02769 0.57003 0.58792 0.21620 0.859 1239.537 0.01963
0.14143 -0.02773 0.57075 0.58867 0.21809 0.938 1239.567 0.01966
0.14161 -0.02776 0.57148 0.58942 0.21997 0.893 1239.597 0.01968
0.14179 -0.02780 0.57220 0.59016 0.22185 0.917 1239.627 0.01971
0.14197 -0.02783 0.57293 0.59091 0.22374 0.836 1239.656 0.01973
0.14215 -0.02787 0.57365 0.59166 0.22562 0.821 1239.686 0.01976
0.14233 -0.02790 0.57437 0.59240 0.22751 0.911 1239.716 0.01978
0.14251 -0.02794 0.57510 0.59315 0.22939 0.862 1239.746 0.01980
0.14269 -0.02797 0.57582 0.59390 0.23127 0.897 1239.776 0.01983
0.14287 -0.02801 0.57655 0.59465 0.23316 0.907 1239.806 0.01985
0.14305 -0.02804 0.57727 0.59539 0.23504 0.909 1239.836 0.01988
0.14323 -0.02808 0.57800 0.59614 0.23693 0.914 1239.866 0.01990
0.14341 -0.02812 0.57872 0.59689 0.23881 0.935 1239.896 0.01993
0.14359 -0.02815 0.57945 0.59764 0.24070 0.935 1239.925 0.01995
0.14377 -0.02819 0.58017 0.59838 0.24258 0.932 1239.955 0.01998
0.14395 -0.02822 0.58090 0.59913 0.24447 0.945 1239.985 0.02000
0.14413 -0.02826 0.58162 0.59988 0.24635 0.961 1240.015 0.02003
0.14430 -0.02829 0.58235 0.60063 0.24824 0.940 1240.045 0.02005
0.14448 -0.02833 0.58307 0.60137 0.25012 0.935 1240.075 0.02008
0.14466 -0.02836 0.58380 0.60212 0.25201 0.979 1240.105 0.02010
0.14484 -0.02840 0.58452 0.60287 0.25389 1.043 1240.135 0.02012
0.14502 -0.02843 0.58525 0.60362 0.25578 0.997 1240.165 0.02015
0.14520 -0.02847 0.58597 0.60436 0.25766 0.967 1240.194 0.02017
0.14538 -0.02850 0.58670 0.60511 0.25955 0.887 1240.224 0.02020
0.14556 -0.02854 0.58742 0.60586 0.26143 0.969 1240.254 0.02022
0.14574 -0.02857 0.58815 0.60661 0.26332 0.986 1240.284 0.02025
0.14592 -0.02861 0.58887 0.60736 0.26521 0.974 1240.314 0.02027
0.14610 -0.02864 0.58960 0.60810 0.26709 0.921 1240.344 0.02030
0.14628 -0.02868 0.59032 0.60885 0.26898 0.892 1240.374 0.02032
0.14646 -0.02871 0.59105 0.60960 0.27086 0.975 1240.404 0.02035
0.14664 -0.02875 0.59177 0.61035 0.27275 0.969 1240.434 0.02037
0.14682 -0.02878 0.59250 0.61109 0.27463 0.956 1240.464 0.02039
0.14700 -0.02882 0.59322 0.61184 0.27652 0.944 1240.493 0.02042
0.14718 -0.02885 0.59395 0.61259 0.27841 0.961 1240.523 0.02044
0.14736 -0.02889 0.59467 0.61334 0.28029 0.953 1240.553 0.02047
0.14754 -0.02893 0.59540 0.61409 0.28218 0.951 1240.583 0.02049
0.14772 -0.02896 0.59612 0.61484 0.28407 0.988 1240.613 0.02052
0.14790 -0.02900 0.59685 0.61558 0.28595 0.939 1240.643 0.02054
0.14808 -0.02903 0.59757 0.61633 0.28784 0.984 1240.673 0.02057
0.14826 -0.02907 0.59830 0.61708 0.28972 1.000 1240.703 0.02059
0.14844 -0.02910 0.59902 0.61783 0.29161 0.979 1240.733 0.02062
0.14862 -0.02914 0.59975 0.61858 0.29350 1.014 1240.762 0.02064
0.14880 -0.02917 0.60048 0.61932 0.29538 0.966 1240.792 0.02067
0.14898 -0.02921 0.60120 0.62007 0.29727 0.950 1240.822 0.02069
0.14916 -0.02924 0.60193 0.62082 0.29916 0.965 1240.852 0.02071
0.14934 -0.02928 0.60265 0.62157 0.30105 0.995 1240.882 0.02074
0.14952 -0.02931 0.60338 0.62232 0.30293 0.959 1240.912 0.02076
0.14970 -0.02935 0.60410 0.62307 0.30482 1.003 1240.942 0.02079
0.14988 -0.02938 0.60483 0.62381 0.30671 0.969 1240.972 0.02081
0.15006 -0.02942 0.60555 0.62456 0.30859 1.007 1241.002 0.02084
0.15024 -0.02945 0.60628 0.62531 0.31048 0.995 1241.031 0.02086
0.15042 -0.02949 0.60701 0.62606 0.31237 0.936 1241.061 0.02089
0.15060 -0.02952 0.60773 0.62681 0.31426 1.009 1241.091 0.02091
0.15078 -0.02956 0.60846 0.62756 0.31614 0.970 1241.121 0.02094
0.15096 -0.02960 0.60918 0.62831 0.31803 0.974 1241.151 0.02096
0.15113 -0.02963 0.60991 0.62905 0.31992 1.010 1241.181 0.02099
0.15131 -0.02967 0.61063 0.62980 0.32181 0.980 1241.211 0.02101
0.15149 -0.02970 0.61136 0.63055 0.32369 0.993 1241.241 0.02103
0.15167 -0.02974 0.61209 0.63130 0.32558 1.013 1241.271 0.02106
0.15185 -0.02977 0.61281 0.63205 0.32747 0.997 1241.300 0.02108
0.15203 -0.02981 0.61354 0.63280 0.32936 0.968 1241.330 0.02111
0.15221 -0.02984 0.61426 0.63355 0.33124 0.982 1241.360 0.02113
0.15239 -0.02988 0.61499 0.63429 0.33313 1.010 1241.390 0.02116
0.15257 -0.02991 0.61572 0.63504 0.33502 0.999 1241.420 0.02118
0.15275 -0.02995 0.61644 0.63579 0.33691 0.945 1241.450 0.02121
0.15293 -0.02998 0.61717 0.63654 0.33880 0.964 1241.480 0.02123
0.15311 -0.03002 0.61789 0.63729 0.34069 0.931 1241.510 0.02126
0.15329 -0.03005 0.61862 0.63804 0.34257 1.006 1241.540 0.02128
0.15347 -0.03009 0.61935 0.63879 0.34446 0.988 1241.570 0.02130
0.15365 -0.03012 0.62007 0.63954 0.34635 0.965 1241.599 0.02133
0.15383 -0.03016 0.62080 0.64029 0.34824 1.011 1241.629 0.02135
0.15401 -0.03019 0.62153 0.64104 0.35013 1.009 1241.659 0.02138
0.15419 -0.03023 0.62225 0.64178 0.35202 1.019 1241.689 0.02140
0.15437 -0.03027 0.62298 0.64253 0.35391 1.014 1241.719 0.02143
0.15455 -0.03030 0.62370 0.64328 0.35580 1.031 1241.749 0.02145
0.15473 -0.03034 0.62443 0.64403 0.35768 1.013 1241.779 0.02148
0.15491 -0.03037 0.62516 0.64478 0.35957 0.985 1241.809 0.02150
0.15509 -0.03041 0.62588 0.64553 0.36146 0.966 1241.839 0.02153
0.15527 -0.03044 0.62661 0.64628 0.36335 0.989 1241.868 0.02155
0.15545 -0.03048 0.62734 0.64703 0.36524 0.942 1241.898 0.02158
0.15563 -0.03051 0.62806 0.64778 0.36713 1.021 1241.928 0.02160
0.15581 -0.03055 0.62879 0.64853 0.36902 1.032 1241.958 0.02162
0.15599 -0.03058 0.62952 0.64928 0.37091 0.983 1241.988 0.02165
0.15617 -0.03062 0.63024 0.65003 0.37280 0.959 1242.018 0.02167
0.15635 -0.03065 0.63097 0.65077 0.37469 0.996 1242.048 0.02170
0.15653 -0.03069 0.63170 0.65152 0.37658 0.993 1242.078 0.02172
0.15671 -0.03072 0.63242 0.65227 0.37847 1.042 1242.108 0.02175
0.15689 -0.03076 0.63315 0.65302 0.38036 0.990 1242.137 0.02177
0.15707 -0.03079 0.63388 0.65377 0.38225 0.998 1242.167 0.02180
0.15725 -0.03083 0.63460 0.65452 0.38414 0.961 1242.197 0.02182
0.15743 -0.03087 0.63533 0.65527 0.38603 0.923 1242.227 0.02185
0.15761 -0.03090 0.63606 0.65602 0.38792 0.958 1242.257 0.02187
0.15779 -0.03094 0.63678 0.65677 0.38981 0.936 1242.287 0.02189
0.15797 -0.03097 0.63751 0.65752 0.39170 0.965 1242.317 0.02192
0.15815 -0.03101 0.63824 0.65827 0.39359 0.921 1242.347 0.02194
0.15833 -0.03104 0.63896 0.65902 0.39548 1.022 1242.377 0.02197
0.15851 -0.03108 0.63969 0.65977 0.39737 0.968 1242.407 0.02199
0.15869 -0.03111 0.64042 0.66052 0.39926 0.958 1242.436 0.02202
0.15887 -0.03115 0.64114 0.66127 0.40115 0.943 1242.466 0.02204
0.15905 -0.03118 0.64187 0.66202 0.40304 0.963 1242.496 0.02207
0.15924 -0.03122 0.64260 0.66277 0.40493 0.994 1242.526 0.02209
0.15942 -0.03125 0.64332 0.66352 0.40682 0.964 1242.556 0.02212
0.15960 -0.03129 0.64405 0.66427 0.40871 0.965 1242.586 0.02214
0.15978 -0.03132 0.64478 0.66502 0.41060 0.953 1242.616 0.02217
0.15996 -0.03136 0.64551 0.66577 0.41249 0.927 1242.646 0.02219
0.16014 -0.03139 0.64623 0.66652 0.41438 0.956 1242.676 0.02221
0.16032 -0.03143 0.64696 0.66727 0.41627 1.011 1242.705 0.02224
0.16050 -0.03147 0.64769 0.66802 0.41817 0.976 1242.735 0.02226
0.16068 -0.03150 0.64841 0.66877 0.42006 0.935 1242.765 0.02229
0.16086 -0.03154 0.64914 0.66952 0.42195 0.935 1242.795 0.02231
0.16104 -0.03157 0.64987 0.67027 0.42384 0.955 1242.825 0.02234
0.16122 -0.03161 0.65060 0.67102 0.42573 0.899 1242.855 0.02236
0.16140 -0.03164 0.65132 0.67177 0.42762 0.872 1242.885 0.02239
0.16158 -0.03168 0.65205 0.67252 0.42951 0.918 1242.915 0.02241
0.16176 -0.03171 0.65278 0.67327 0.43141 0.927 1242.945 0.02244
0.16194 -0.03175 0.65351 0.67402 0.43330 0.964 1242.974 0.02246
0.16212 -0.03178 0.65423 0.67477 0.43519 1.039 1243.004 0.02249
0.16230 -0.03182 0.65496 0.67552 0.43708 1.001 1243.034 0.02251
0.16248 -0.03185 0.65569 0.67627 0.43897 0.985 1243.064 0.02253
0.16266 -0.03189 0.65642 0.67702 0.44086 0.933 1243.094 0.02256
0.16284 -0.03192 0.65714 0.67777 0.44276 1.023 1243.124 0.02258
0.16302 -0.03196 0.65787 0.67852 0.44465 1.012 1243.154 0.02261
0.16320 -0.03200 0.65860 0.67927 0.44654 0.952 1243.184 0.02263
0.16338 -0.03203 0.65933 0.68002 0.44843 1.032 1243.214 0.02266
0.16356 -0.03207 0.66005 0.68077 0.45032 0.986 1243.243 0.02268
0.16374 -0.03210 0.66078 0.68152 0.45222 0.953 1243.273 0.02271
0.16392 -0.03214 0.66151 0.68227 0.45411 0.976 1243.303 0.02273
0.16410 -0.03217 0.66224 0.68302 0.45600 0.969 1243.333 0.02276
0.16428 -0.03221 0.66296 0.68377 0.45789 0.946 1243.363 0.02278
0.16446 -0.03224 0.66369 0.68452 0.45979 0.959 1243.393 0.02280
0.16464 -0.03228 0.66442 0.68527 0.46168 0.968 1243.423 0.02283
0.16482 -0.03231 0.66515 0.68603 0.46357 0.970 1243.453 0.02285
0.16500 -0.03235 0.66587 0.68678 0.46546 0.969 1243.483 0.02288
0.16518 -0.03238 0.66660 0.68753 0.46736 0.976 1243.513 0.02290
0.16536 -0.03242 0.66733 0.68828 0.46925 0.967 1243.542 0.02293
0.16554 -0.03246 0.66806 0.68903 0.47114 0.952 1243.572 0.02295
0.16572 -0.03249 0.66879 0.68978 0.47304 0.957 1243.602 0.02298
0.16590 -0.03253 0.66951 0.69053 0.47493 0.944 1243.632 0.02300
0.16609 -0.03256 0.67024 0.69128 0.47682 0.974 1243.662 0.02303
0.16627 -0.03260 0.67097 0.69203 0.47872 0.975 1243.692 0.02305
0.16645 -0.03263 0.67170 0.69278 0.48061 0.962 1243.722 0.02308
0.16663 -0.03267 0.67243 0.69353 0.48250 1.008 1243.752 0.02310
0.16681 -0.03270 0.67315 0.69428 0.48440 0.974 1243.782 0.02312
0.16699 -0.03274 0.67388 0.69504 0.48629 0.965 1243.811 0.02315
0.16717 -0.03277 0.67461 0.69579 0.48818 0.990 1243.841 0.02317
0.16735 -0.03281 0.67534 0.69654 0.49008 0.962 1243.871 0.02320
0.16753 -0.03284 0.67607 0.69729 0.49197 0.954 1243.901 0.02322
0.16771 -0.03288 0.67679 0.69804 0.49386 1.045 1243.931 0.02325
0.16789 -0.03292 0.67752 0.69879 0.49576 0.959 1243.961 0.02327
0.16807 -0.03295 0.67825 0.69954 0.49765 0.965 1243.991 0.02330
0.16825 -0.03299 0.67898 0.70029 0.49955 1.006 1244.021 0.02332
0.16843 -0.03302 0.67971 0.70104 0.50144 0.998 1244.051 0.02335
0.16861 -0.03306 0.68044 0.70179 0.50333 1.046 1244.080 0.02337
0.16879 -0.03309 0.68116 0.70255 0.50523 0.994 1244.110 0.02339
0.16897 -0.03313 0.68189 0.70330 0.50712 0.928 1244.140 0.02342
0.16915 -0.03316 0.68262 0.70405 0.50902 0.988 1244.170 0.02344
0.16933 -0.03320 0.68335 0.70480 0.51091 0.982 1244.200 0.02347
0.16951 -0.03323 0.68408 0.70555 0.51281 1.030 1244.230 0.02349
0.16969 -0.03327 0.68481 0.70630 0.51470 0.994 1244.260 0.02352
0.16987 -0.03330 0.68554 0.70705 0.51660 0.990 1244.290 0.02354
0.17006 -0.03334 0.68626 0.70781 0.51849 0.964 1244.320 0.02357
0.17024 -0.03338 0.68699 0.70856 0.52038 0.959 1244.350 0.02359
0.17042 -0.03341 0.68772 0.70931 0.52228 0.976 1244.379 0.02362
0.17060 -0.03345 0.68845 0.71006 0.52417 1.025 1244.409 0.02364
0.17078 -0.03348 0.68918 0.71081 0.52607 0.960 1244.439 0.02367
0.17096 -0.03352 0.68991 0.71156 0.52796 1.058 1244.469 0.02369
0.17114 -0.03355 0.69064 0.71231 0.52986 0.982 1244.499 0.02371
0.17132 -0.03359 0.69136 0.71307 0.53175 1.002 1244.529 0.02374
0.17150 -0.03362 0.69209 0.71382 0.53365 1.092 1244.559 0.02376
0.17168 -0.03366 0.69282 0.71457 0.53555 1.053 1244.589 0.02379
0.17186 -0.03369 0.69355 0.71532 0.53744 0.981 1244.619 0.02381
0.17204 -0.03373 0.69428 0.71607 0.53934 0.891 1244.648 0.02384
0.17222 -0.03376 0.69501 0.71682 0.54123 0.919 1244.678 0.02386
0.17240 -0.03380 0.69574 0.71758 0.54313 0.951 1244.708 0.02389
0.17258 -0.03384 0.69647 0.71833 0.54502 0.912 1244.738 0.02391
0.17276 -0.03387 0.69720 0.71908 0.54692 0.932 1244.768 0.02394
0.17294 -0.03391 0.69792 0.71983 0.54881 0.965 1244.798 0.02396
0.17313 -0.03394 0.69865 0.72058 0.55071 1.116 1244.828 0.02398
0.17331 -0.03398 0.69938 0.72134 0.55261 1.025 1244.858 0.02401
0.17349 -0.03401 0.70011 0.72209 0.55450 0.976 1244.888 0.02403
0.17367 -0.03405 0.70084 0.72284 0.55640 0.970 1244.917 0.02406
0.17385 -0.03408 0.70157 0.72359 0.55829 0.962 1244.947 0.02408
0.17403 -0.03412 0.70230 0.72434 0.56019 1.004 1244.977 0.02411
0.17421 -0.03415 0.70303 0.72510 0.56209 1.036 1245.007 0.02413
0.17439 -0.03419 0.70376 0.72585 0.56398 0.975 1245.037 0.02416
0.17457 -0.03422 0.70449 0.72660 0.56588 1.079 1245.067 0.02418
0.17475 -0.03426 0.70521 0.72735 0.56778 1.070 1245.097 0.02421
0.17493 -0.03430 0.70594 0.72810 0.56967 0.980 1245.127 0.02423
0.17511 -0.03433 0.70667 0.72886 0.57157 1.002 1245.157 0.02426
0.17529 -0.03437 0.70740 0.72961 0.57346 1.006 1245.186 0.02428
0.17547 -0.03440 0.70813 0.73036 0.57536 1.031 1245.216 0.02430
0.17566 -0.03444 0.70886 0.73111 0.57726 1.041 1245.246 0.02433
0.17584 -0.03447 0.70959 0.73186 0.57916 0.976 1245.276 0.02435
0.17602 -0.03451 0.71032 0.73262 0.58105 1.003 1245.306 0.02438
0.17620 -0.03454 0.71105 0.73337 0.58295 1.041 1245.336 0.02440
0.17638 -0.03458 0.71178 0.73412 0.58485 0.998 1245.366 0.02443
