x y z dist_scaled dist_frac flux_norm wavelength redshift
-0.02702 -0.04017 0.50034 0.50267 0.00000 0.973 1236.119 0.01682
-0.02706 -0.04023 0.50108 0.50342 0.00188 0.868 1236.149 0.01685
-0.02710 -0.04029 0.50182 0.50416 0.00376 1.081 1236.179 0.01687
-0.02714 -0.04035 0.50256 0.50491 0.00564 1.001 1236.209 0.01690
-0.02718 -0.04041 0.50330 0.50565 0.00752 0.880 1236.239 0.01692
-0.02722 -0.04047 0.50404 0.50639 0.00940 1.039 1236.269 0.01694
-0.02726 -0.04053 0.50478 0.50714 0.01128 0.983 1236.299 0.01697
-0.02730 -0.04059 0.50552 0.50788 0.01316 1.118 1236.328 0.01699
-0.02734 -0.04065 0.50626 0.50863 0.01504 0.990 1236.358 0.01702
-0.02738 -0.04071 0.50700 0.50937 0.01692 1.125 1236.388 0.01704
-0.02742 -0.04077 0.50774 0.51012 0.01880 1.029 1236.418 0.01707
-0.02746 -0.04083 0.50848 0.51086 0.02068 1.220 1236.448 0.01709
-0.02750 -0.04089 0.50923 0.51160 0.02256 1.171 1236.478 0.01712
-0.02754 -0.04095 0.50997 0.51235 0.02444 1.052 1236.508 0.01714
-0.02758 -0.04101 0.51071 0.51309 0.02632 0.980 1236.538 0.01717
-0.02762 -0.04107 0.51145 0.51384 0.02820 1.225 1236.568 0.01719
-0.02766 -0.04113 0.51219 0.51458 0.03008 0.900 1236.597 0.01721
-0.02770 -0.04119 0.51293 0.51533 0.03196 0.963 1236.627 0.01724
-0.02774 -0.04125 0.51367 0.51607 0.03385 0.899 1236.657 0.01726
-0.02778 -0.04131 0.51441 0.51682 0.03573 1.049 1236.687 0.01729
-0.02782 -0.04136 0.51515 0.51756 0.03761 1.096 1236.717 0.01731
-0.02786 -0.04142 0.51590 0.51831 0.03949 1.016 1236.747 0.01734
-0.02790 -0.04148 0.51664 0.51905 0.04137 0.980 1236.777 0.01736
-0.02794 -0.04154 0.51738 0.51979 0.04325 1.146 1236.807 0.01739
-0.02799 -0.04160 0.51812 0.52054 0.04513 0.814 1236.837 0.01741
-0.02803 -0.04166 0.51886 0.52128 0.04701 0.967 1236.866 0.01744
-0.02807 -0.04172 0.51960 0.52203 0.04890 0.706 1236.896 0.01746
-0.02811 -0.04178 0.52034 0.52277 0.05078 0.931 1236.926 0.01749
-0.02815 -0.04184 0.52108 0.52352 0.05266 0.859 1236.956 0.01751
-0.02819 -0.04190 0.52183 0.52426 0.05454 0.965 1236.986 0.01753
-0.02823 -0.04196 0.52257 0.52501 0.05642 0.894 1237.016 0.01756
-0.02827 -0.04202 0.52331 0.52575 0.05830 0.988 1237.046 0.01758
-0.02831 -0.04208 0.52405 0.52650 0.06019 0.999 1237.076 0.01761
-0.02835 -0.04214 0.52479 0.52724 0.06207 0.916 1237.106 0.01763
-0.02839 -0.04220 0.52553 0.52799 0.06395 0.878 1237.135 0.01766
-0.02843 -0.04226 0.52627 0.52873 0.06583 1.082 1237.165 0.01768
-0.02847 -0.04232 0.52702 0.52948 0.06771 1.057 1237.195 0.01771
-0.02851 -0.04238 0.52776 0.53022 0.06960 1.167 1237.225 0.01773
-0.02855 -0.04244 0.52850 0.53097 0.07148 0.931 1237.255 0.01776
-0.02859 -0.04250 0.52924 0.53171 0.07336 0.953 1237.285 0.01778
-0.02863 -0.04256 0.52998 0.53246 0.07524 0.778 1237.315 0.01780
-0.02867 -0.04261 0.53072 0.53320 0.07713 1.027 1237.345 0.01783
-0.02871 -0.04267 0.53147 0.53395 0.07901 1.037 1237.375 0.01785
-0.02875 -0.04273 0.53221 0.53469 0.08089 1.079 1237.405 0.01788
-0.02879 -0.04279 0.53295 0.53544 0.08277 1.113 1237.434 0.01790
-0.02883 -0.04285 0.53369 0.53618 0.08466 1.078 1237.464 0.01793
-0.02887 -0.04291 0.53443 0.53693 0.08654 1.072 1237.494 0.01795
-0.02891 -0.04297 0.53517 0.53767 0.08842 0.899 1237.524 0.01798
-0.02895 -0.04303 0.53592 0.53842 0.09030 0.857 1237.554 0.01800
-0.02899 -0.04309 0.53666 0.53917 0.09219 1.007 1237.584 0.01803
-0.02903 -0.04315 0.53740 0.53991 0.09407 0.866 1237.614 0.01805
-0.02907 -0.04321 0.53814 0.54066 0.09595 0.985 1237.644 0.01808
-0.02911 -0.04327 0.53888 0.54140 0.09784 1.152 1237.674 0.01810
-0.02915 -0.04333 0.53963 0.54215 0.09972 0.925 1237.703 0.01812
-0.02919 -0.04339 0.54037 0.54289 0.10160 1.103 1237.733 0.01815
-0.02923 -0.04345 0.54111 0.54364 0.10349 1.047 1237.763 0.01817
-0.02927 -0.04351 0.54185 0.54438 0.10537 0.976 1237.793 0.01820
-0.02931 -0.04357 0.54259 0.54513 0.10725 0.984 1237.823 0.01822
-0.02935 -0.04363 0.54334 0.54587 0.10914 1.084 1237.853 0.01825
-0.02939 -0.04369 0.54408 0.54662 0.11102 0.982 1237.883 0.01827
-0.02943 -0.04375 0.54482 0.54737 0.11290 0.982 1237.913 0.01830
-0.02947 -0.04381 0.54556 0.54811 0.11479 0.950 1237.943 0.01832
-0.02951 -0.04387 0.54631 0.54886 0.11667 1.043 1237.972 0.01835
-0.02955 -0.04393 0.54705 0.54960 0.11856 1.044 1238.002 0.01837
-0.02959 -0.04399 0.54779 0.55035 0.12044 1.018 1238.032 0.01840
-0.02963 -0.04404 0.54853 0.55109 0.12232 0.936 1238.062 0.01842
-0.02967 -0.04410 0.54927 0.55184 0.12421 1.069 1238.092 0.01844
-0.02971 -0.04416 0.55002 0.55259 0.12609 0.970 1238.122 0.01847
-0.02975 -0.04422 0.55076 0.55333 0.12798 1.062 1238.152 0.01849
-0.02979 -0.04428 0.55150 0.55408 0.12986 0.899 1238.182 0.01852
-0.02983 -0.04434 0.55224 0.55482 0.13175 1.078 1238.212 0.01854
-0.02987 -0.04440 0.55299 0.55557 0.13363 1.083 1238.242 0.01857
-0.02991 -0.04446 0.55373 0.55632 0.13551 1.019 1238.271 0.01859
-0.02995 -0.04452 0.55447 0.55706 0.13740 0.967 1238.301 0.01862
-0.02999 -0.04458 0.55521 0.55781 0.13928 1.053 1238.331 0.01864
-0.03003 -0.04464 0.55596 0.55855 0.14117 0.995 1238.361 0.01867
-0.03007 -0.04470 0.55670 0.55930 0.14305 0.925 1238.391 0.01869
-0.03011 -0.04476 0.55744 0.56005 0.14494 1.000 1238.421 0.01871
-0.03015 -0.04482 0.55819 0.56079 0.14682 0.919 1238.451 0.01874
-0.03019 -0.04488 0.55893 0.56154 0.14871 1.085 1238.481 0.01876
-0.03023 -0.04494 0.55967 0.56229 0.15059 0.889 1238.511 0.01879
-0.03027 -0.04500 0.56041 0.56303 0.15248 1.021 1238.540 0.01881
-0.03031 -0.04506 0.56116 0.56378 0.15436 0.958 1238.570 0.01884
-0.03035 -0.04512 0.56190 0.56452 0.15625 0.801 1238.600 0.01886
-0.03039 -0.04518 0.56264 0.56527 0.15813 0.973 1238.630 0.01889
-0.03043 -0.04524 0.56338 0.56602 0.16002 0.933 1238.660 0.01891
-0.03047 -0.04530 0.56413 0.56676 0.16191 0.967 1238.690 0.01894
-0.03051 -0.04536 0.56487 0.56751 0.16379 0.748 1238.720 0.01896
-0.03055 -0.04542 0.56561 0.56826 0.16568 0.840 1238.750 0.01899
-0.03059 -0.04548 0.56636 0.56900 0.16756 0.823 1238.780 0.01901
-0.03063 -0.04554 0.56710 0.56975 0.16945 0.862 1238.809 0.01903
-0.03067 -0.04560 0.56784 0.57050 0.17133 0.713 1238.839 0.01906
-0.03071 -0.04565 0.56859 0.57124 0.17322 0.861 1238.869 0.01908
-0.03075 -0.04571 0.56933 0.57199 0.17511 0.924 1238.899 0.01911
-0.03079 -0.04577 0.57007 0.57273 0.17699 0.780 1238.929 0.01913
-0.03083 -0.04583 0.57081 0.57348 0.17888 1.003 1238.959 0.01916
-0.03087 -0.04589 0.57156 0.57423 0.18076 0.924 1238.989 0.01918
-0.03091 -0.04595 0.57230 0.57497 0.18265 0.993 1239.019 0.01921
-0.03095 -0.04601 0.57304 0.57572 0.18454 0.944 1239.049 0.01923
-0.03099 -0.04607 0.57379 0.57647 0.18642 0.902 1239.078 0.01926
-0.03103 -0.04613 0.57453 0.57721 0.18831 1.030 1239.108 0.01928
-0.03107 -0.04619 0.57527 0.57796 0.19020 1.021 1239.138 0.01930
-0.03111 -0.04625 0.57602 0.57871 0.19208 0.983 1239.168 0.01933
-0.03115 -0.04631 0.57676 0.57946 0.19397 0.963 1239.198 0.01935
-0.03119 -0.04637 0.57750 0.58020 0.19586 1.031 1239.228 0.01938
-0.03123 -0.04643 0.57825 0.58095 0.19774 0.886 1239.258 0.01940
-0.03127 -0.04649 0.57899 0.58170 0.19963 1.073 1239.288 0.01943
-0.03131 -0.04655 0.57973 0.58244 0.20152 0.929 1239.318 0.01945
-0.03135 -0.04661 0.58048 0.58319 0.20340 0.856 1239.348 0.01948
-0.03139 -0.04667 0.58122 0.58394 0.20529 1.007 1239.377 0.01950
-0.03143 -0.04673 0.58196 0.58468 0.20718 1.011 1239.407 0.01953
-0.03147 -0.04679 0.58271 0.58543 0.20907 0.929 1239.437 0.01955
-0.03151 -0.04685 0.58345 0.58618 0.21095 0.937 1239.467 0.01958
-0.03155 -0.04691 0.58420 0.58692 0.21284 0.869 1239.497 0.01960
-0.03159 -0.04697 0.58494 0.58767 0.21473 0.937 1239.527 0.01962
-0.03163 -0.04703 0.58568 0.58842 0.21662 0.969 1239.557 0.01965
-0.03167 -0.04709 0.58643 0.58917 0.21850 1.042 1239.587 0.01967
-0.03171 -0.04715 0.58717 0.58991 0.22039 0.997 1239.617 0.01970
-0.03175 -0.04721 0.58791 0.59066 0.22228 0.906 1239.646 0.01972
-0.03180 -0.04727 0.58866 0.59141 0.22417 0.973 1239.676 0.01975
-0.03184 -0.04733 0.58940 0.59216 0.22605 0.961 1239.706 0.01977
-0.03188 -0.04739 0.59015 0.59290 0.22794 0.950 1239.736 0.01980
-0.03192 -0.04745 0.59089 0.59365 0.22983 0.891 1239.766 0.01982
-0.03196 -0.04751 0.59163 0.59440 0.23172 0.793 1239.796 0.01985
-0.03200 -0.04757 0.59238 0.59514 0.23361 0.928 1239.826 0.01987
-0.03204 -0.04763 0.59312 0.59589 0.23549 0.800 1239.856 0.01989
-0.03208 -0.04768 0.59387 0.59664 0.23738 0.807 1239.886 0.01992
-0.03212 -0.04774 0.59461 0.59739 0.23927 0.776 1239.915 0.01994
-0.03216 -0.04780 0.59535 0.59813 0.24116 0.769 1239.945 0.01997
-0.03220 -0.04786 0.59610 0.59888 0.24305 0.663 1239.975 0.01999
-0.03224 -0.04792 0.59684 0.59963 0.24494 0.648 1240.005 0.02002
-0.03228 -0.04798 0.59759 0.60038 0.24682 0.655 1240.035 0.02004
-0.03232 -0.04804 0.59833 0.60112 0.24871 0.834 1240.065 0.02007
-0.03236 -0.04810 0.59907 0.60187 0.25060 0.901 1240.095 0.02009
-0.03240 -0.04816 0.59982 0.60262 0.25249 0.975 1240.125 0.02012
-0.03244 -0.04822 0.60056 0.60337 0.25438 1.034 1240.155 0.02014
-0.03248 -0.04828 0.60131 0.60412 0.25627 0.907 1240.185 0.02017
-0.03252 -0.04834 0.60205 0.60486 0.25816 1.048 1240.214 0.02019
-0.03256 -0.04840 0.60279 0.60561 0.26005 0.839 1240.244 0.02021
-0.03260 -0.04846 0.60354 0.60636 0.26194 0.921 1240.274 0.02024
-0.03264 -0.04852 0.60428 0.60711 0.26382 1.024 1240.304 0.02026
-0.03268 -0.04858 0.60503 0.60785 0.26571 1.038 1240.334 0.02029
-0.03272 -0.04864 0.60577 0.60860 0.26760 0.897 1240.364 0.02031
-0.03276 -0.04870 0.60652 0.60935 0.26949 0.829 1240.394 0.02034
-0.03280 -0.04876 0.60726 0.61010 0.27138 1.170 1240.424 0.02036
-0.03284 -0.04882 0.60801 0.61085 0.27327 0.947 1240.454 0.02039
-0.03288 -0.04888 0.60875 0.61159 0.27516 1.124 1240.483 0.02041
-0.03292 -0.04894 0.60949 0.61234 0.27705 1.131 1240.513 0.02044
-0.03296 -0.04900 0.61024 0.61309 0.27894 1.086 1240.543 0.02046
-0.03300 -0.04906 0.61098 0.61384 0.28083 0.974 1240.573 0.02049
-0.03304 -0.04912 0.61173 0.61459 0.28272 0.981 1240.603 0.02051
-0.03308 -0.04918 0.61247 0.61533 0.28461 0.953 1240.633 0.02053
-0.03312 -0.04924 0.61322 0.61608 0.28650 0.896 1240.663 0.02056
-0.03316 -0.04930 0.61396 0.61683 0.28839 1.097 1240.693 0.02058
-0.03320 -0.04936 0.61471 0.61758 0.29028 1.022 1240.723 0.02061
-0.03324 -0.04942 0.61545 0.61833 0.29217 1.024 1240.752 0.02063
-0.03328 -0.04948 0.61620 0.61907 0.29406 0.961 1240.782 0.02066
-0.03332 -0.04954 0.61694 0.61982 0.29595 1.164 1240.812 0.02068
-0.03336 -0.04960 0.61769 0.62057 0.29784 0.991 1240.842 0.02071
-0.03340 -0.04966 0.61843 0.62132 0.29973 0.901 1240.872 0.02073
-0.03344 -0.04972 0.61918 0.62207 0.30162 0.949 1240.902 0.02076
-0.03348 -0.04978 0.61992 0.62282 0.30351 1.045 1240.932 0.02078
-0.03352 -0.04984 0.62067 0.62356 0.30540 0.927 1240.962 0.02080
-0.03356 -0.04990 0.62141 0.62431 0.30729 1.090 1240.992 0.02083
-0.03360 -0.04996 0.62216 0.62506 0.30918 1.083 1241.021 0.02085
-0.03364 -0.05002 0.62290 0.62581 0.31108 0.984 1241.051 0.02088
-0.03368 -0.05008 0.62365 0.62656 0.31297 0.958 1241.081 0.02090
-0.03373 -0.05014 0.62439 0.62731 0.31486 1.090 1241.111 0.02093
-0.03377 -0.05020 0.62514 0.62806 0.31675 0.979 1241.141 0.02095
-0.03381 -0.05026 0.62588 0.62880 0.31864 0.956 1241.171 0.02098
-0.03385 -0.05032 0.62663 0.62955 0.32053 0.941 1241.201 0.02100
-0.03389 -0.05038 0.62737 0.63030 0.32242 1.058 1241.231 0.02103
-0.03393 -0.05043 0.62812 0.63105 0.32431 1.058 1241.261 0.02105
-0.03397 -0.05049 0.62886 0.63180 0.32620 1.064 1241.291 0.02108
-0.03401 -0.05055 0.62961 0.63255 0.32810 0.866 1241.320 0.02110
-0.03405 -0.05061 0.63035 0.63330 0.32999 0.822 1241.350 0.02112
-0.03409 -0.05067 0.63110 0.63405 0.33188 0.851 1241.380 0.02115
-0.03413 -0.05073 0.63184 0.63479 0.33377 1.036 1241.410 0.02117
-0.03417 -0.05079 0.63259 0.63554 0.33566 0.932 1241.440 0.02120
-0.03421 -0.05085 0.63333 0.63629 0.33755 1.008 1241.470 0.02122
-0.03425 -0.05091 0.63408 0.63704 0.33945 0.909 1241.500 0.02125
-0.03429 -0.05097 0.63482 0.63779 0.34134 0.920 1241.530 0.02127
-0.03433 -0.05103 0.63557 0.63854 0.34323 1.099 1241.560 0.02130
-0.03437 -0.05109 0.63631 0.63929 0.34512 0.962 1241.589 0.02132
-0.03441 -0.05115 0.63706 0.64004 0.34701 0.852 1241.619 0.02135
-0.03445 -0.05121 0.63781 0.64079 0.34891 1.059 1241.649 0.02137
-0.03449 -0.05127 0.63855 0.64153 0.35080 1.053 1241.679 0.02139
-0.03453 -0.05133 0.63930 0.64228 0.35269 0.933 1241.709 0.02142
-0.03457 -0.05139 0.64004 0.64303 0.35458 1.019 1241.739 0.02144
-0.03461 -0.05145 0.64079 0.64378 0.35648 1.078 1241.769 0.02147
-0.03465 -0.05151 0.64153 0.64453 0.35837 0.996 1241.799 0.02149
-0.03469 -0.05157 0.64228 0.64528 0.36026 0.941 1241.829 0.02152
-0.03473 -0.05163 0.64303 0.64603 0.36215 0.984 1241.858 0.02154
-0.03477 -0.05169 0.64377 0.64678 0.36405 1.043 1241.888 0.02157
-0.03481 -0.05175 0.64452 0.64753 0.36594 0.961 1241.918 0.02159
-0.03485 -0.05181 0.64526 0.64828 0.36783 0.895 1241.948 0.02162
-0.03489 -0.05187 0.64601 0.64903 0.36973 1.073 1241.978 0.02164
-0.03493 -0.05193 0.64675 0.64978 0.37162 0.970 1242.008 0.02167
-0.03497 -0.05199 0.64750 0.65053 0.37351 0.818 1242.038 0.02169
-0.03501 -0.05205 0.64825 0.65127 0.37541 0.985 1242.068 0.02171
-0.03505 -0.05211 0.64899 0.65202 0.37730 1.012 1242.098 0.02174
-0.03509 -0.05217 0.64974 0.65277 0.37919 0.941 1242.128 0.02176
-0.03513 -0.05223 0.65048 0.65352 0.38109 0.897 1242.157 0.02179
-0.03517 -0.05229 0.65123 0.65427 0.38298 0.880 1242.187 0.02181
-0.03522 -0.05235 0.65198 0.65502 0.38487 0.928 1242.217 0.02184
-0.03526 -0.05241 0.65272 0.65577 0.38677 0.987 1242.247 0.02186
-0.03530 -0.05247 0.65347 0.65652 0.38866 1.110 1242.277 0.02189
-0.03534 -0.05253 0.65421 0.65727 0.39055 1.007 1242.307 0.02191
-0.03538 -0.05259 0.65496 0.65802 0.39245 1.017 1242.337 0.02194
-0.03542 -0.05265 0.65571 0.65877 0.39434 1.006 1242.367 0.02196
-0.03546 -0.05271 0.65645 0.65952 0.39623 0.828 1242.397 0.02199
-0.03550 -0.05277 0.65720 0.66027 0.39813 0.876 1242.426 0.02201
-0.03554 -0.05283 0.65795 0.66102 0.40002 0.961 1242.456 0.02203
-0.03558 -0.05289 0.65869 0.66177 0.40192 0.939 1242.486 0.02206
-0.03562 -0.05295 0.65944 0.66252 0.40381 0.869 1242.516 0.02208
-0.03566 -0.05301 0.66018 0.66327 0.40570 0.928 1242.546 0.02211
-0.03570 -0.05307 0.66093 0.66402 0.40760 0.901 1242.576 0.02213
-0.03574 -0.05313 0.66168 0.66477 0.40949 0.836 1242.606 0.02216
-0.03578 -0.05319 0.66242 0.66552 0.41139 0.921 1242.636 0.02218
-0.03582 -0.05325 0.66317 0.66627 0.41328 1.049 1242.666 0.02221
-0.03586 -0.05331 0.66392 0.66702 0.41518 0.990 1242.695 0.02223
-0.03590 -0.05337 0.66466 0.66777 0.41707 0.915 1242.725 0.02226
-0.03594 -0.05343 0.66541 0.66852 0.41897 0.909 1242.755 0.02228
-0.03598 -0.05349 0.66616 0.66927 0.42086 0.887 1242.785 0.02230
-0.03602 -0.05355 0.66690 0.67002 0.42276 0.860 1242.815 0.02233
-0.03606 -0.05361 0.66765 0.67077 0.42465 0.875 1242.845 0.02235
-0.03610 -0.05367 0.66840 0.67152 0.42655 1.024 1242.875 0.02238
-0.03614 -0.05373 0.66914 0.67227 0.42844 0.917 1242.905 0.02240
-0.03618 -0.05379 0.66989 0.67302 0.43034 0.927 1242.935 0.02243
-0.03622 -0.05385 0.67064 0.67377 0.43223 0.895 1242.964 0.02245
-0.03626 -0.05391 0.67138 0.67452 0.43413 0.916 1242.994 0.02248
-0.03630 -0.05397 0.67213 0.67527 0.43602 0.798 1243.024 0.02250
-0.03634 -0.05403 0.67288 0.67602 0.43792 0.919 1243.054 0.02253
-0.03638 -0.05409 0.67362 0.67677 0.43981 0.802 1243.084 0.02255
-0.03642 -0.05415 0.67437 0.67752 0.44171 0.865 1243.114 0.02258
-0.03646 -0.05421 0.67512 0.67827 0.44360 1.061 1243.144 0.02260
-0.03651 -0.05427 0.67586 0.67902 0.44550 0.918 1243.174 0.02262
-0.03655 -0.05433 0.67661 0.67977 0.44740 0.954 1243.204 0.02265
-0.03659 -0.05439 0.67736 0.68052 0.44929 0.986 1243.234 0.02267
-0.03663 -0.05445 0.67810 0.68127 0.45119 0.943 1243.263 0.02270
-0.03667 -0.05451 0.67885 0.68202 0.45308 1.000 1243.293 0.02272
-0.03671 -0.05457 0.67960 0.68277 0.45498 0.905 1243.323 0.02275
-0.03675 -0.05463 0.68035 0.68352 0.45688 0.978 1243.353 0.02277
-0.03679 -0.05469 0.68109 0.68427 0.45877 0.988 1243.383 0.02280
-0.03683 -0.05475 0.68184 0.68502 0.46067 0.998 1243.413 0.02282
-0.03687 -0.05481 0.68259 0.68578 0.46256 1.056 1243.443 0.02285
-0.03691 -0.05487 0.68333 0.68653 0.46446 1.076 1243.473 0.02287
-0.03695 -0.05493 0.68408 0.68728 0.46636 0.918 1243.503 0.02289
-0.03699 -0.05499 0.68483 0.68803 0.46825 1.028 1243.532 0.02292
-0.03703 -0.05505 0.68558 0.68878 0.47015 1.090 1243.562 0.02294
-0.03707 -0.05511 0.68632 0.68953 0.47205 1.110 1243.592 0.02297
-0.03711 -0.05517 0.68707 0.69028 0.47394 0.926 1243.622 0.02299
-0.03715 -0.05523 0.68782 0.69103 0.47584 1.004 1243.652 0.02302
-0.03719 -0.05529 0.68856 0.69178 0.47774 0.909 1243.682 0.02304
-0.03723 -0.05535 0.68931 0.69253 0.47963 0.945 1243.712 0.02307
-0.03727 -0.05541 0.69006 0.69328 0.48153 1.044 1243.742 0.02309
-0.03731 -0.05547 0.69081 0.69403 0.48343 1.096 1243.772 0.02312
-0.03735 -0.05553 0.69155 0.69478 0.48532 0.970 1243.801 0.02314
-0.03739 -0.05559 0.69230 0.69554 0.48722 0.959 1243.831 0.02317
-0.03743 -0.05565 0.69305 0.69629 0.48912 0.953 1243.861 0.02319
-0.03747 -0.05571 0.69380 0.69704 0.49102 1.005 1243.891 0.02321
-0.03751 -0.05577 0.69454 0.69779 0.49291 1.026 1243.921 0.02324
-0.03755 -0.05583 0.69529 0.69854 0.49481 0.957 1243.951 0.02326
-0.03760 -0.05589 0.69604 0.69929 0.49671 0.972 1243.981 0.02329
-0.03764 -0.05595 0.69679 0.70004 0.49861 0.940 1244.011 0.02331
-0.03768 -0.05601 0.69753 0.70079 0.50050 0.887 1244.041 0.02334
-0.03772 -0.05607 0.69828 0.70154 0.50240 1.030 1244.071 0.02336
-0.03776 -0.05613 0.69903 0.70230 0.50430 1.020 1244.100 0.02339
-0.03780 -0.05619 0.69978 0.70305 0.50620 1.040 1244.130 0.02341
-0.03784 -0.05625 0.70053 0.70380 0.50809 1.003 1244.160 0.02344
-0.03788 -0.05631 0.70127 0.70455 0.50999 0.994 1244.190 0.02346
-0.03792 -0.05637 0.70202 0.70530 0.51189 1.014 1244.220 0.02348
-0.03796 -0.05643 0.70277 0.70605 0.51379 1.020 1244.250 0.02351
-0.03800 -0.05649 0.70352 0.70680 0.51569 0.784 1244.280 0.02353
-0.03804 -0.05655 0.70427 0.70755 0.51759 0.929 1244.310 0.02356
-0.03808 -0.05661 0.70501 0.70831 0.51948 1.079 1244.340 0.02358
-0.03812 -0.05667 0.70576 0.70906 0.52138 1.104 1244.369 0.02361
-0.03816 -0.05673 0.70651 0.70981 0.52328 0.934 1244.399 0.02363
-0.03820 -0.05679 0.70726 0.71056 0.52518 1.055 1244.429 0.02366
-0.03824 -0.05685 0.70800 0.71131 0.52708 1.025 1244.459 0.02368
-0.03828 -0.05691 0.70875 0.71206 0.52898 0.888 1244.489 0.02371
-0.03832 -0.05697 0.70950 0.71282 0.53087 1.114 1244.519 0.02373
-0.03836 -0.05703 0.71025 0.71357 0.53277 1.104 1244.549 0.02376
-0.03840 -0.05709 0.71100 0.71432 0.53467 0.911 1244.579 0.02378
-0.03844 -0.05715 0.71175 0.71507 0.53657 1.148 1244.609 0.02380
-0.03848 -0.05721 0.71249 0.71582 0.53847 1.018 1244.638 0.02383
-0.03852 -0.05727 0.71324 0.71657 0.54037 0.981 1244.668 0.02385
-0.03856 -0.05733 0.71399 0.71733 0.54227 1.043 1244.698 0.02388
-0.03860 -0.05739 0.71474 0.71808 0.54417 0.980 1244.728 0.02390
-0.03865 -0.05745 0.71549 0.71883 0.54607 1.015 1244.758 0.02393
-0.03869 -0.05751 0.71624 0.71958 0.54797 0.963 1244.788 0.02395
-0.03873 -0.05757 0.71698 0.72033 0.54987 1.050 1244.818 0.02398
-0.03877 -0.05763 0.71773 0.72108 0.55176 1.162 1244.848 0.02400
-0.03881 -0.05769 0.71848 0.72184 0.55366 0.946 1244.878 0.02403
-0.03885 -0.05775 0.71923 0.72259 0.55556 1.002 1244.907 0.02405
-0.03889 -0.05781 0.71998 0.72334 0.55746 1.052 1244.937 0.02408
-0.03893 -0.05787 0.72073 0.72409 0.55936 0.975 1244.967 0.02410
-0.03897 -0.05793 0.72147 0.72484 0.56126 0.960 1244.997 0.02412
-0.03901 -0.05799 0.72222 0.72560 0.56316 1.005 1245.027 0.02415
-0.03905 -0.05805 0.72297 0.72635 0.56506 0.984 1245.057 0.02417
-0.03909 -0.05811 0.72372 0.72710 0.56696 1.014 1245.087 0.02420
-0.03913 -0.05817 0.72447 0.72785 0.56886 1.039 1245.117 0.02422
-0.03917 -0.05823 0.72522 0.72860 0.57076 0.911 1245.147 0.02425
-0.03921 -0.05829 0.72597 0.72936 0.57266 1.033 1245.177 0.02427
-0.03925 -0.05835 0.72671 0.73011 0.57456 1.032 1245.206 0.02430
-0.03929 -0.05841 0.72746 0.73086 0.57646 0.960 1245.236 0.02432
