x y z dist_scaled dist_frac flux_norm wavelength redshift
-0.17336 0.01583 0.47147 0.50258 0.00000 0.757 1236.115 0.01682
-0.17362 0.01586 0.47217 0.50333 0.00188 1.288 1236.145 0.01684
-0.17388 0.01588 0.47287 0.50407 0.00375 0.865 1236.175 0.01687
-0.17413 0.01590 0.47356 0.50481 0.00563 1.287 1236.205 0.01689
-0.17439 0.01593 0.47426 0.50556 0.00751 0.865 1236.235 0.01692
-0.17465 0.01595 0.47496 0.50630 0.00938 0.813 1236.265 0.01694
-0.17490 0.01597 0.47566 0.50705 0.01126 0.813 1236.295 0.01697
-0.17516 0.01600 0.47635 0.50779 0.01313 0.923 1236.325 0.01699
-0.17542 0.01602 0.47705 0.50853 0.01501 1.088 1236.355 0.01701
-0.17567 0.01604 0.47775 0.50928 0.01689 0.928 1236.384 0.01704
-0.17593 0.01607 0.47845 0.51002 0.01876 1.462 1236.414 0.01706
-0.17619 0.01609 0.47915 0.51077 0.02064 0.608 1236.444 0.01709
-0.17644 0.01612 0.47984 0.51151 0.02252 0.964 1236.474 0.01711
-0.17670 0.01614 0.48054 0.51225 0.02440 0.838 1236.504 0.01714
-0.17696 0.01616 0.48124 0.51300 0.02627 0.960 1236.534 0.01716
-0.17721 0.01619 0.48194 0.51374 0.02815 0.928 1236.564 0.01719
-0.17747 0.01621 0.48264 0.51449 0.03003 0.904 1236.594 0.01721
-0.17773 0.01623 0.48333 0.51523 0.03190 0.797 1236.623 0.01724
-0.17798 0.01626 0.48403 0.51597 0.03378 1.284 1236.653 0.01726
-0.17824 0.01628 0.48473 0.51672 0.03566 0.662 1236.683 0.01729
-0.17850 0.01630 0.48543 0.51746 0.03754 0.640 1236.713 0.01731
-0.17875 0.01633 0.48613 0.51821 0.03941 1.060 1236.743 0.01733
-0.17901 0.01635 0.48682 0.51895 0.04129 0.946 1236.773 0.01736
-0.17927 0.01637 0.48752 0.51970 0.04317 0.996 1236.803 0.01738
-0.17952 0.01640 0.48822 0.52044 0.04505 1.336 1236.833 0.01741
-0.17978 0.01642 0.48892 0.52118 0.04692 0.889 1236.862 0.01743
-0.18004 0.01644 0.48962 0.52193 0.04880 1.109 1236.892 0.01746
-0.18029 0.01647 0.49032 0.52267 0.05068 0.995 1236.922 0.01748
-0.18055 0.01649 0.49101 0.52342 0.05256 1.104 1236.952 0.01751
-0.18081 0.01651 0.49171 0.52416 0.05444 1.047 1236.982 0.01753
-0.18106 0.01654 0.49241 0.52491 0.05631 1.162 1237.012 0.01756
-0.18132 0.01656 0.49311 0.52565 0.05819 1.317 1237.042 0.01758
-0.18158 0.01658 0.49381 0.52640 0.06007 1.429 1237.072 0.01760
-0.18183 0.01661 0.49451 0.52714 0.06195 0.886 1237.101 0.01763
-0.18209 0.01663 0.49521 0.52788 0.06383 0.723 1237.131 0.01765
-0.18235 0.01665 0.49590 0.52863 0.06571 0.996 1237.161 0.01768
-0.18261 0.01668 0.49660 0.52937 0.06758 1.323 1237.191 0.01770
-0.18286 0.01670 0.49730 0.53012 0.06946 0.720 1237.221 0.01773
-0.18312 0.01673 0.49800 0.53086 0.07134 0.937 1237.251 0.01775
-0.18338 0.01675 0.49870 0.53161 0.07322 1.157 1237.281 0.01778
-0.18363 0.01677 0.49940 0.53235 0.07510 1.378 1237.311 0.01780
-0.18389 0.01680 0.50010 0.53310 0.07698 0.560 1237.341 0.01783
-0.18415 0.01682 0.50079 0.53384 0.07886 1.162 1237.370 0.01785
-0.18440 0.01684 0.50149 0.53459 0.08074 1.057 1237.400 0.01788
-0.18466 0.01687 0.50219 0.53533 0.08261 0.945 1237.430 0.01790
-0.18492 0.01689 0.50289 0.53608 0.08449 1.107 1237.460 0.01792
-0.18517 0.01691 0.50359 0.53682 0.08637 0.613 1237.490 0.01795
-0.18543 0.01694 0.50429 0.53757 0.08825 1.051 1237.520 0.01797
-0.18569 0.01696 0.50499 0.53831 0.09013 1.105 1237.550 0.01800
-0.18595 0.01698 0.50569 0.53906 0.09201 0.941 1237.580 0.01802
-0.18620 0.01701 0.50639 0.53980 0.09389 1.271 1237.609 0.01805
-0.18646 0.01703 0.50708 0.54055 0.09577 1.273 1237.639 0.01807
-0.18672 0.01705 0.50778 0.54129 0.09765 0.832 1237.669 0.01810
-0.18697 0.01708 0.50848 0.54204 0.09953 0.833 1237.699 0.01812
-0.18723 0.01710 0.50918 0.54278 0.10141 1.158 1237.729 0.01815
-0.18749 0.01712 0.50988 0.54353 0.10329 0.445 1237.759 0.01817
-0.18774 0.01715 0.51058 0.54427 0.10517 0.995 1237.789 0.01819
-0.18800 0.01717 0.51128 0.54502 0.10705 1.048 1237.819 0.01822
-0.18826 0.01719 0.51198 0.54576 0.10893 0.774 1237.848 0.01824
-0.18852 0.01722 0.51268 0.54651 0.11081 1.102 1237.878 0.01827
-0.18877 0.01724 0.51338 0.54725 0.11269 0.775 1237.908 0.01829
-0.18903 0.01726 0.51408 0.54800 0.11457 0.776 1237.938 0.01832
-0.18929 0.01729 0.51477 0.54874 0.11645 1.051 1237.968 0.01834
-0.18954 0.01731 0.51547 0.54949 0.11833 1.327 1237.998 0.01837
-0.18980 0.01734 0.51617 0.55024 0.12021 1.161 1238.028 0.01839
-0.19006 0.01736 0.51687 0.55098 0.12209 0.940 1238.058 0.01842
-0.19032 0.01738 0.51757 0.55173 0.12397 0.557 1238.087 0.01844
-0.19057 0.01741 0.51827 0.55247 0.12585 0.995 1238.117 0.01847
-0.19083 0.01743 0.51897 0.55322 0.12773 0.773 1238.147 0.01849
-0.19109 0.01745 0.51967 0.55396 0.12961 1.160 1238.177 0.01851
-0.19134 0.01748 0.52037 0.55471 0.13149 1.325 1238.207 0.01854
-0.19160 0.01750 0.52107 0.55545 0.13338 0.996 1238.237 0.01856
-0.19186 0.01752 0.52177 0.55620 0.13526 1.050 1238.267 0.01859
-0.19212 0.01755 0.52247 0.55695 0.13714 0.833 1238.297 0.01861
-0.19237 0.01757 0.52317 0.55769 0.13902 0.281 1238.327 0.01864
-0.19263 0.01759 0.52387 0.55844 0.14090 0.613 1238.356 0.01866
-0.19289 0.01762 0.52457 0.55918 0.14278 1.112 1238.386 0.01869
-0.19314 0.01764 0.52527 0.55993 0.14466 0.946 1238.416 0.01871
-0.19340 0.01766 0.52597 0.56067 0.14654 0.560 1238.446 0.01874
-0.19366 0.01769 0.52667 0.56142 0.14843 0.890 1238.476 0.01876
-0.19392 0.01771 0.52736 0.56217 0.15031 0.614 1238.506 0.01878
-0.19417 0.01773 0.52806 0.56291 0.15219 0.394 1238.536 0.01881
-0.19443 0.01776 0.52876 0.56366 0.15407 0.730 1238.566 0.01883
-0.19469 0.01778 0.52946 0.56440 0.15595 0.726 1238.595 0.01886
-0.19495 0.01781 0.53016 0.56515 0.15783 0.891 1238.625 0.01888
-0.19520 0.01783 0.53086 0.56590 0.15972 1.120 1238.655 0.01891
-0.19546 0.01785 0.53156 0.56664 0.16160 0.785 1238.685 0.01893
-0.19572 0.01788 0.53226 0.56739 0.16348 1.280 1238.715 0.01896
-0.19598 0.01790 0.53296 0.56813 0.16536 0.901 1238.745 0.01898
-0.19623 0.01792 0.53366 0.56888 0.16724 0.899 1238.775 0.01901
-0.19649 0.01795 0.53436 0.56963 0.16913 0.785 1238.805 0.01903
-0.19675 0.01797 0.53506 0.57037 0.17101 0.730 1238.834 0.01905
-0.19700 0.01799 0.53576 0.57112 0.17289 1.563 1238.864 0.01908
-0.19726 0.01802 0.53646 0.57186 0.17477 1.009 1238.894 0.01910
-0.19752 0.01804 0.53716 0.57261 0.17665 1.566 1238.924 0.01913
-0.19778 0.01806 0.53786 0.57336 0.17854 1.066 1238.954 0.01915
-0.19803 0.01809 0.53856 0.57410 0.18042 0.846 1238.984 0.01918
-0.19829 0.01811 0.53926 0.57485 0.18230 0.903 1239.014 0.01920
-0.19855 0.01813 0.53996 0.57560 0.18419 1.026 1239.044 0.01923
-0.19881 0.01816 0.54066 0.57634 0.18607 0.943 1239.073 0.01925
-0.19906 0.01818 0.54136 0.57709 0.18795 0.954 1239.103 0.01928
-0.19932 0.01820 0.54206 0.57784 0.18983 1.312 1239.133 0.01930
-0.19958 0.01823 0.54276 0.57858 0.19172 0.883 1239.163 0.01933
-0.19984 0.01825 0.54346 0.57933 0.19360 0.949 1239.193 0.01935
-0.20009 0.01828 0.54416 0.58007 0.19548 0.706 1239.223 0.01937
-0.20035 0.01830 0.54487 0.58082 0.19737 0.989 1239.253 0.01940
-0.20061 0.01832 0.54557 0.58157 0.19925 1.454 1239.283 0.01942
-0.20087 0.01835 0.54627 0.58231 0.20113 0.847 1239.313 0.01945
-0.20112 0.01837 0.54697 0.58306 0.20302 0.644 1239.342 0.01947
-0.20138 0.01839 0.54767 0.58381 0.20490 1.070 1239.372 0.01950
-0.20164 0.01842 0.54837 0.58455 0.20678 0.820 1239.402 0.01952
-0.20190 0.01844 0.54907 0.58530 0.20867 1.194 1239.432 0.01955
-0.20215 0.01846 0.54977 0.58605 0.21055 0.787 1239.462 0.01957
-0.20241 0.01849 0.55047 0.58679 0.21243 0.732 1239.492 0.01960
-0.20267 0.01851 0.55117 0.58754 0.21432 0.952 1239.522 0.01962
-0.20293 0.01853 0.55187 0.58829 0.21620 1.062 1239.552 0.01964
-0.20318 0.01856 0.55257 0.58904 0.21809 0.844 1239.581 0.01967
-0.20344 0.01858 0.55327 0.58978 0.21997 1.452 1239.611 0.01969
-0.20370 0.01860 0.55397 0.59053 0.22185 0.787 1239.641 0.01972
-0.20396 0.01863 0.55467 0.59128 0.22374 0.899 1239.671 0.01974
-0.20422 0.01865 0.55537 0.59202 0.22562 0.845 1239.701 0.01977
-0.20447 0.01868 0.55607 0.59277 0.22751 0.962 1239.731 0.01979
-0.20473 0.01870 0.55677 0.59352 0.22939 0.900 1239.761 0.01982
-0.20499 0.01872 0.55748 0.59426 0.23128 0.959 1239.791 0.01984
-0.20525 0.01875 0.55818 0.59501 0.23316 0.785 1239.820 0.01987
-0.20550 0.01877 0.55888 0.59576 0.23504 0.677 1239.850 0.01989
-0.20576 0.01879 0.55958 0.59650 0.23693 0.675 1239.880 0.01992
-0.20602 0.01882 0.56028 0.59725 0.23881 0.780 1239.910 0.01994
-0.20628 0.01884 0.56098 0.59800 0.24070 1.165 1239.940 0.01996
-0.20653 0.01886 0.56168 0.59875 0.24258 0.950 1239.970 0.01999
-0.20679 0.01889 0.56238 0.59949 0.24447 1.114 1240.000 0.02001
-0.20705 0.01891 0.56308 0.60024 0.24635 1.061 1240.030 0.02004
-0.20731 0.01893 0.56378 0.60099 0.24824 1.336 1240.059 0.02006
-0.20757 0.01896 0.56448 0.60174 0.25012 0.615 1240.089 0.02009
-0.20782 0.01898 0.56519 0.60248 0.25201 1.001 1240.119 0.02011
-0.20808 0.01901 0.56589 0.60323 0.25389 1.062 1240.149 0.02014
-0.20834 0.01903 0.56659 0.60398 0.25578 0.838 1240.179 0.02016
-0.20860 0.01905 0.56729 0.60472 0.25766 1.117 1240.209 0.02019
-0.20885 0.01908 0.56799 0.60547 0.25955 0.748 1240.239 0.02021
-0.20911 0.01910 0.56869 0.60622 0.26144 0.951 1240.269 0.02023
-0.20937 0.01912 0.56939 0.60697 0.26332 0.792 1240.299 0.02026
-0.20963 0.01915 0.57009 0.60771 0.26521 0.955 1240.328 0.02028
-0.20989 0.01917 0.57079 0.60846 0.26709 1.120 1240.358 0.02031
-0.21014 0.01919 0.57150 0.60921 0.26898 1.065 1240.388 0.02033
-0.21040 0.01922 0.57220 0.60996 0.27086 1.073 1240.418 0.02036
-0.21066 0.01924 0.57290 0.61070 0.27275 0.627 1240.448 0.02038
-0.21092 0.01926 0.57360 0.61145 0.27464 0.732 1240.478 0.02041
-0.21118 0.01929 0.57430 0.61220 0.27652 1.182 1240.508 0.02043
-0.21143 0.01931 0.57500 0.61295 0.27841 0.959 1240.538 0.02046
-0.21169 0.01933 0.57570 0.61370 0.28029 1.287 1240.567 0.02048
-0.21195 0.01936 0.57641 0.61444 0.28218 1.403 1240.597 0.02050
-0.21221 0.01938 0.57711 0.61519 0.28407 0.959 1240.627 0.02053
-0.21247 0.01941 0.57781 0.61594 0.28595 1.122 1240.657 0.02055
-0.21272 0.01943 0.57851 0.61669 0.28784 1.229 1240.687 0.02058
-0.21298 0.01945 0.57921 0.61743 0.28973 0.788 1240.717 0.02060
-0.21324 0.01948 0.57991 0.61818 0.29161 0.952 1240.747 0.02063
-0.21350 0.01950 0.58061 0.61893 0.29350 0.958 1240.777 0.02065
-0.21375 0.01952 0.58132 0.61968 0.29539 1.396 1240.806 0.02068
-0.21401 0.01955 0.58202 0.62043 0.29727 1.240 1240.836 0.02070
-0.21427 0.01957 0.58272 0.62117 0.29916 0.799 1240.866 0.02073
-0.21453 0.01959 0.58342 0.62192 0.30105 1.128 1240.896 0.02075
-0.21479 0.01962 0.58412 0.62267 0.30293 0.686 1240.926 0.02078
-0.21505 0.01964 0.58482 0.62342 0.30482 1.187 1240.956 0.02080
-0.21530 0.01966 0.58553 0.62417 0.30671 0.964 1240.986 0.02082
-0.21556 0.01969 0.58623 0.62491 0.30859 1.186 1241.016 0.02085
-0.21582 0.01971 0.58693 0.62566 0.31048 1.892 1241.045 0.02087
-0.21608 0.01974 0.58763 0.62641 0.31237 1.350 1241.075 0.02090
-0.21634 0.01976 0.58833 0.62716 0.31426 1.009 1241.105 0.02092
-0.21659 0.01978 0.58904 0.62791 0.31614 0.951 1241.135 0.02095
-0.21685 0.01981 0.58974 0.62866 0.31803 1.116 1241.165 0.02097
-0.21711 0.01983 0.59044 0.62940 0.31992 1.175 1241.195 0.02100
-0.21737 0.01985 0.59114 0.63015 0.32181 1.136 1241.225 0.02102
-0.21763 0.01988 0.59184 0.63090 0.32369 0.880 1241.255 0.02105
-0.21788 0.01990 0.59255 0.63165 0.32558 1.023 1241.285 0.02107
-0.21814 0.01992 0.59325 0.63240 0.32747 1.087 1241.314 0.02109
-0.21840 0.01995 0.59395 0.63315 0.32936 0.976 1241.344 0.02112
-0.21866 0.01997 0.59465 0.63389 0.33125 1.228 1241.374 0.02114
-0.21892 0.01999 0.59535 0.63464 0.33313 0.814 1241.404 0.02117
-0.21917 0.02002 0.59606 0.63539 0.33502 1.084 1241.434 0.02119
-0.21943 0.02004 0.59676 0.63614 0.33691 1.054 1241.464 0.02122
-0.21969 0.02007 0.59746 0.63689 0.33880 0.807 1241.494 0.02124
-0.21995 0.02009 0.59816 0.63764 0.34069 0.770 1241.524 0.02127
-0.22021 0.02011 0.59886 0.63838 0.34258 0.960 1241.553 0.02129
-0.22047 0.02014 0.59957 0.63913 0.34446 1.424 1241.583 0.02132
-0.22072 0.02016 0.60027 0.63988 0.34635 0.885 1241.613 0.02134
-0.22098 0.02018 0.60097 0.64063 0.34824 0.639 1241.643 0.02137
-0.22124 0.02021 0.60167 0.64138 0.35013 0.939 1241.673 0.02139
-0.22150 0.02023 0.60238 0.64213 0.35202 1.211 1241.703 0.02141
-0.22176 0.02025 0.60308 0.64288 0.35391 0.589 1241.733 0.02144
-0.22202 0.02028 0.60378 0.64363 0.35580 0.805 1241.763 0.02146
-0.22227 0.02030 0.60448 0.64437 0.35769 0.865 1241.792 0.02149
-0.22253 0.02032 0.60519 0.64512 0.35957 0.739 1241.822 0.02151
-0.22279 0.02035 0.60589 0.64587 0.36146 0.736 1241.852 0.02154
-0.22305 0.02037 0.60659 0.64662 0.36335 0.899 1241.882 0.02156
-0.22331 0.02040 0.60729 0.64737 0.36524 1.224 1241.912 0.02159
-0.22357 0.02042 0.60800 0.64812 0.36713 0.620 1241.942 0.02161
-0.22382 0.02044 0.60870 0.64887 0.36902 0.566 1241.972 0.02164
-0.22408 0.02047 0.60940 0.64962 0.37091 1.282 1242.002 0.02166
-0.22434 0.02049 0.61010 0.65037 0.37280 0.999 1242.031 0.02168
-0.22460 0.02051 0.61081 0.65111 0.37469 0.840 1242.061 0.02171
-0.22486 0.02054 0.61151 0.65186 0.37658 0.736 1242.091 0.02173
-0.22512 0.02056 0.61221 0.65261 0.37847 0.353 1242.121 0.02176
-0.22537 0.02058 0.61291 0.65336 0.38036 0.901 1242.151 0.02178
-0.22563 0.02061 0.61362 0.65411 0.38225 1.229 1242.181 0.02181
-0.22589 0.02063 0.61432 0.65486 0.38414 1.332 1242.211 0.02183
-0.22615 0.02066 0.61502 0.65561 0.38603 1.172 1242.241 0.02186
-0.22641 0.02068 0.61573 0.65636 0.38792 0.730 1242.271 0.02188
-0.22667 0.02070 0.61643 0.65711 0.38981 0.562 1242.300 0.02191
-0.22692 0.02073 0.61713 0.65786 0.39170 1.004 1242.330 0.02193
-0.22718 0.02075 0.61783 0.65861 0.39359 0.835 1242.360 0.02196
-0.22744 0.02077 0.61854 0.65936 0.39548 0.786 1242.390 0.02198
-0.22770 0.02080 0.61924 0.66011 0.39737 0.897 1242.420 0.02200
-0.22796 0.02082 0.61994 0.66085 0.39926 0.568 1242.450 0.02203
-0.22822 0.02084 0.62065 0.66160 0.40115 1.004 1242.480 0.02205
-0.22848 0.02087 0.62135 0.66235 0.40304 0.731 1242.510 0.02208
-0.22873 0.02089 0.62205 0.66310 0.40493 0.675 1242.539 0.02210
-0.22899 0.02091 0.62276 0.66385 0.40682 0.675 1242.569 0.02213
-0.22925 0.02094 0.62346 0.66460 0.40871 0.726 1242.599 0.02215
-0.22951 0.02096 0.62416 0.66535 0.41060 1.326 1242.629 0.02218
-0.22977 0.02099 0.62487 0.66610 0.41249 1.273 1242.659 0.02220
-0.23003 0.02101 0.62557 0.66685 0.41438 1.109 1242.689 0.02223
-0.23029 0.02103 0.62627 0.66760 0.41628 1.108 1242.719 0.02225
-0.23054 0.02106 0.62698 0.66835 0.41817 0.937 1242.749 0.02227
-0.23080 0.02108 0.62768 0.66910 0.42006 0.779 1242.778 0.02230
-0.23106 0.02110 0.62838 0.66985 0.42195 1.384 1242.808 0.02232
-0.23132 0.02113 0.62909 0.67060 0.42384 1.104 1242.838 0.02235
-0.23158 0.02115 0.62979 0.67135 0.42573 0.670 1242.868 0.02237
-0.23184 0.02117 0.63049 0.67210 0.42762 1.327 1242.898 0.02240
-0.23210 0.02120 0.63120 0.67285 0.42951 1.221 1242.928 0.02242
-0.23235 0.02122 0.63190 0.67360 0.43141 0.727 1242.958 0.02245
-0.23261 0.02125 0.63260 0.67435 0.43330 0.886 1242.988 0.02247
-0.23287 0.02127 0.63331 0.67510 0.43519 1.047 1243.017 0.02250
-0.23313 0.02129 0.63401 0.67585 0.43708 0.887 1243.047 0.02252
-0.23339 0.02132 0.63471 0.67660 0.43897 0.828 1243.077 0.02254
-0.23365 0.02134 0.63542 0.67735 0.44087 0.940 1243.107 0.02257
-0.23391 0.02136 0.63612 0.67810 0.44276 0.607 1243.137 0.02259
-0.23417 0.02139 0.63682 0.67885 0.44465 1.209 1243.167 0.02262
-0.23442 0.02141 0.63753 0.67960 0.44654 0.995 1243.197 0.02264
-0.23468 0.02143 0.63823 0.68035 0.44843 1.157 1243.227 0.02267
-0.23494 0.02146 0.63893 0.68110 0.45033 1.209 1243.257 0.02269
-0.23520 0.02148 0.63964 0.68185 0.45222 1.213 1243.286 0.02272
-0.23546 0.02151 0.64034 0.68260 0.45411 1.103 1243.316 0.02274
-0.23572 0.02153 0.64105 0.68335 0.45600 0.494 1243.346 0.02277
-0.23598 0.02155 0.64175 0.68410 0.45790 1.318 1243.376 0.02279
-0.23624 0.02158 0.64245 0.68485 0.45979 1.096 1243.406 0.02282
-0.23649 0.02160 0.64316 0.68560 0.46168 1.096 1243.436 0.02284
-0.23675 0.02162 0.64386 0.68635 0.46357 0.933 1243.466 0.02286
-0.23701 0.02165 0.64456 0.68710 0.46547 1.096 1243.496 0.02289
-0.23727 0.02167 0.64527 0.68785 0.46736 1.096 1243.525 0.02291
-0.23753 0.02169 0.64597 0.68860 0.46925 1.102 1243.555 0.02294
-0.23779 0.02172 0.64668 0.68935 0.47114 1.211 1243.585 0.02296
-0.23805 0.02174 0.64738 0.69010 0.47304 1.426 1243.615 0.02299
-0.23831 0.02177 0.64808 0.69085 0.47493 0.995 1243.645 0.02301
-0.23857 0.02179 0.64879 0.69160 0.47682 1.107 1243.675 0.02304
-0.23882 0.02181 0.64949 0.69235 0.47872 0.779 1243.705 0.02306
-0.23908 0.02184 0.65020 0.69310 0.48061 1.162 1243.735 0.02309
-0.23934 0.02186 0.65090 0.69385 0.48250 1.160 1243.764 0.02311
-0.23960 0.02188 0.65160 0.69461 0.48440 0.661 1243.794 0.02313
-0.23986 0.02191 0.65231 0.69536 0.48629 1.108 1243.824 0.02316
-0.24012 0.02193 0.65301 0.69611 0.48818 0.921 1243.854 0.02318
-0.24038 0.02195 0.65372 0.69686 0.49008 0.844 1243.884 0.02321
-0.24064 0.02198 0.65442 0.69761 0.49197 1.279 1243.914 0.02323
-0.24090 0.02200 0.65513 0.69836 0.49387 0.885 1243.944 0.02326
-0.24115 0.02203 0.65583 0.69911 0.49576 1.117 1243.974 0.02328
-0.24141 0.02205 0.65653 0.69986 0.49765 1.023 1244.003 0.02331
-0.24167 0.02207 0.65724 0.70061 0.49955 0.932 1244.033 0.02333
-0.24193 0.02210 0.65794 0.70136 0.50144 1.206 1244.063 0.02336
-0.24219 0.02212 0.65865 0.70211 0.50334 0.640 1244.093 0.02338
-0.24245 0.02214 0.65935 0.70286 0.50523 0.917 1244.123 0.02341
-0.24271 0.02217 0.66006 0.70361 0.50712 1.058 1244.153 0.02343
-0.24297 0.02219 0.66076 0.70437 0.50902 0.953 1244.183 0.02345
-0.24323 0.02221 0.66147 0.70512 0.51091 1.286 1244.213 0.02348
-0.24349 0.02224 0.66217 0.70587 0.51281 1.440 1244.243 0.02350
-0.24374 0.02226 0.66287 0.70662 0.51470 1.134 1244.272 0.02353
-0.24400 0.02229 0.66358 0.70737 0.51660 0.964 1244.302 0.02355
-0.24426 0.02231 0.66428 0.70812 0.51849 1.200 1244.332 0.02358
-0.24452 0.02233 0.66499 0.70887 0.52039 1.124 1244.362 0.02360
-0.24478 0.02236 0.66569 0.70962 0.52228 1.275 1244.392 0.02363
-0.24504 0.02238 0.66640 0.71037 0.52418 1.055 1244.422 0.02365
-0.24530 0.02240 0.66710 0.71112 0.52607 0.785 1244.452 0.02368
-0.24556 0.02243 0.66781 0.71188 0.52797 0.944 1244.482 0.02370
-0.24582 0.02245 0.66851 0.71263 0.52986 1.003 1244.511 0.02372
-0.24608 0.02248 0.66922 0.71338 0.53176 1.001 1244.541 0.02375
-0.24634 0.02250 0.66992 0.71413 0.53365 0.946 1244.571 0.02377
-0.24659 0.02252 0.67063 0.71488 0.53555 0.998 1244.601 0.02380
-0.24685 0.02255 0.67133 0.71563 0.53744 1.215 1244.631 0.02382
-0.24711 0.02257 0.67204 0.71638 0.53934 1.329 1244.661 0.02385
-0.24737 0.02259 0.67274 0.71714 0.54123 1.533 1244.691 0.02387
-0.24763 0.02262 0.67345 0.71789 0.54313 1.426 1244.721 0.02390
-0.24789 0.02264 0.67415 0.71864 0.54502 1.646 1244.750 0.02392
-0.24815 0.02266 0.67486 0.71939 0.54692 0.995 1244.780 0.02395
-0.24841 0.02269 0.67556 0.72014 0.54882 1.348 1244.810 0.02397
-0.24867 0.02271 0.67627 0.72089 0.55071 1.058 1244.840 0.02400
-0.24893 0.02274 0.67697 0.72164 0.55261 1.075 1244.870 0.02402
-0.24919 0.02276 0.67768 0.72240 0.55450 0.507 1244.900 0.02404
-0.24945 0.02278 0.67838 0.72315 0.55640 0.817 1244.930 0.02407
-0.24971 0.02281 0.67909 0.72390 0.55829 0.860 1244.960 0.02409
-0.24996 0.02283 0.67979 0.72465 0.56019 1.160 1244.989 0.02412
-0.25022 0.02285 0.68050 0.72540 0.56209 1.007 1245.019 0.02414
-0.25048 0.02288 0.68120 0.72615 0.56398 0.744 1245.049 0.02417
-0.25074 0.02290 0.68191 0.72691 0.56588 1.233 1245.079 0.02419
-0.25100 0.02293 0.68261 0.72766 0.56778 0.979 1245.109 0.02422
-0.25126 0.02295 0.68332 0.72841 0.56967 0.681 1245.139 0.02424
-0.25152 0.02297 0.68402 0.72916 0.57157 1.102 1245.169 0.02427
-0.25178 0.02300 0.68473 0.72991 0.57347 1.042 1245.199 0.02429
-0.25204 0.02302 0.68543 0.73066 0.57536 1.108 1245.229 0.02431
-0.25230 0.02304 0.68614 0.73142 0.57726 0.714 1245.258 0.02434
-0.25256 0.02307 0.68684 0.73217 0.57916 0.829 1245.288 0.02436
-0.25282 0.02309 0.68755 0.73292 0.58105 0.713 1245.318 0.02439
-0.25308 0.02311 0.68825 0.73367 0.58295 1.206 1245.348 0.02441
-0.25334 0.02314 0.68896 0.73442 0.58485 0.498 1245.378 0.02444
