x y z dist_scaled dist_frac flux_norm wavelength redshift
0.01895 0.01324 0.50205 0.50258 0.00000 1.051 1236.115 0.01682
0.01898 0.01326 0.50279 0.50333 0.00188 0.945 1236.145 0.01684
0.01900 0.01328 0.50354 0.50407 0.00375 0.933 1236.175 0.01687
0.01903 0.01330 0.50428 0.50481 0.00563 0.953 1236.205 0.01689
0.01906 0.01332 0.50502 0.50556 0.00751 1.102 1236.235 0.01692
0.01909 0.01334 0.50577 0.50630 0.00938 1.040 1236.265 0.01694
0.01912 0.01336 0.50651 0.50705 0.01126 0.979 1236.295 0.01697
0.01914 0.01338 0.50725 0.50779 0.01313 1.010 1236.325 0.01699
0.01917 0.01340 0.50799 0.50853 0.01501 1.036 1236.355 0.01701
0.01920 0.01342 0.50874 0.50928 0.01689 0.790 1236.384 0.01704
0.01923 0.01344 0.50948 0.51002 0.01876 0.761 1236.414 0.01706
0.01926 0.01346 0.51022 0.51077 0.02064 0.695 1236.444 0.01709
0.01928 0.01348 0.51097 0.51151 0.02252 0.572 1236.474 0.01711
0.01931 0.01350 0.51171 0.51225 0.02440 0.584 1236.504 0.01714
0.01934 0.01352 0.51245 0.51300 0.02627 0.666 1236.534 0.01716
0.01937 0.01354 0.51320 0.51374 0.02815 0.463 1236.564 0.01719
0.01940 0.01356 0.51394 0.51449 0.03003 0.757 1236.594 0.01721
0.01942 0.01358 0.51468 0.51523 0.03190 0.849 1236.623 0.01724
0.01945 0.01360 0.51543 0.51597 0.03378 0.716 1236.653 0.01726
0.01948 0.01362 0.51617 0.51672 0.03566 1.044 1236.683 0.01729
0.01951 0.01364 0.51691 0.51746 0.03754 0.989 1236.713 0.01731
0.01954 0.01366 0.51766 0.51821 0.03941 1.041 1236.743 0.01733
0.01957 0.01367 0.51840 0.51895 0.04129 0.894 1236.773 0.01736
0.01959 0.01369 0.51915 0.51970 0.04317 0.959 1236.803 0.01738
0.01962 0.01371 0.51989 0.52044 0.04505 1.052 1236.833 0.01741
0.01965 0.01373 0.52063 0.52118 0.04692 0.986 1236.862 0.01743
0.01968 0.01375 0.52138 0.52193 0.04880 0.799 1236.892 0.01746
0.01971 0.01377 0.52212 0.52267 0.05068 0.957 1236.922 0.01748
0.01973 0.01379 0.52286 0.52342 0.05256 1.010 1236.952 0.01751
0.01976 0.01381 0.52361 0.52416 0.05444 1.048 1236.982 0.01753
0.01979 0.01383 0.52435 0.52491 0.05631 1.020 1237.012 0.01756
0.01982 0.01385 0.52509 0.52565 0.05819 1.072 1237.042 0.01758
0.01985 0.01387 0.52584 0.52640 0.06007 0.967 1237.072 0.01760
0.01987 0.01389 0.52658 0.52714 0.06195 1.240 1237.101 0.01763
0.01990 0.01391 0.52733 0.52788 0.06383 1.174 1237.131 0.01765
0.01993 0.01393 0.52807 0.52863 0.06571 0.975 1237.161 0.01768
0.01996 0.01395 0.52881 0.52937 0.06758 1.303 1237.191 0.01770
0.01999 0.01397 0.52956 0.53012 0.06946 1.054 1237.221 0.01773
0.02001 0.01399 0.53030 0.53086 0.07134 0.987 1237.251 0.01775
0.02004 0.01401 0.53105 0.53161 0.07322 0.870 1237.281 0.01778
0.02007 0.01403 0.53179 0.53235 0.07510 0.999 1237.311 0.01780
0.02010 0.01405 0.53253 0.53310 0.07698 0.855 1237.341 0.01783
0.02013 0.01407 0.53328 0.53384 0.07886 1.140 1237.370 0.01785
0.02015 0.01409 0.53402 0.53459 0.08074 0.932 1237.400 0.01788
0.02018 0.01411 0.53477 0.53533 0.08261 0.994 1237.430 0.01790
0.02021 0.01413 0.53551 0.53608 0.08449 0.979 1237.460 0.01792
0.02024 0.01415 0.53625 0.53682 0.08637 1.133 1237.490 0.01795
0.02027 0.01417 0.53700 0.53757 0.08825 1.080 1237.520 0.01797
0.02029 0.01419 0.53774 0.53831 0.09013 1.300 1237.550 0.01800
0.02032 0.01420 0.53849 0.53906 0.09201 1.028 1237.580 0.01802
0.02035 0.01422 0.53923 0.53980 0.09389 1.027 1237.609 0.01805
0.02038 0.01424 0.53998 0.54055 0.09577 1.218 1237.639 0.01807
0.02041 0.01426 0.54072 0.54129 0.09765 1.155 1237.669 0.01810
0.02044 0.01428 0.54146 0.54204 0.09953 1.064 1237.699 0.01812
0.02046 0.01430 0.54221 0.54278 0.10141 1.011 1237.729 0.01815
0.02049 0.01432 0.54295 0.54353 0.10329 0.818 1237.759 0.01817
0.02052 0.01434 0.54370 0.54427 0.10517 0.984 1237.789 0.01819
0.02055 0.01436 0.54444 0.54502 0.10705 1.111 1237.819 0.01822
0.02058 0.01438 0.54519 0.54576 0.10893 1.021 1237.848 0.01824
0.02060 0.01440 0.54593 0.54651 0.11081 0.907 1237.878 0.01827
0.02063 0.01442 0.54668 0.54725 0.11269 0.958 1237.908 0.01829
0.02066 0.01444 0.54742 0.54800 0.11457 1.159 1237.938 0.01832
0.02069 0.01446 0.54816 0.54874 0.11645 1.120 1237.968 0.01834
0.02072 0.01448 0.54891 0.54949 0.11833 0.952 1237.998 0.01837
0.02074 0.01450 0.54965 0.55024 0.12021 0.900 1238.028 0.01839
0.02077 0.01452 0.55040 0.55098 0.12209 0.875 1238.058 0.01842
0.02080 0.01454 0.55114 0.55173 0.12397 1.051 1238.087 0.01844
0.02083 0.01456 0.55189 0.55247 0.12585 1.162 1238.117 0.01847
0.02086 0.01458 0.55263 0.55322 0.12773 0.836 1238.147 0.01849
0.02089 0.01460 0.55338 0.55396 0.12961 0.999 1238.177 0.01851
0.02091 0.01462 0.55412 0.55471 0.13149 0.986 1238.207 0.01854
0.02094 0.01464 0.55487 0.55545 0.13338 0.820 1238.237 0.01856
0.02097 0.01466 0.55561 0.55620 0.13526 0.858 1238.267 0.01859
0.02100 0.01468 0.55636 0.55695 0.13714 0.819 1238.297 0.01861
0.02103 0.01470 0.55710 0.55769 0.13902 0.956 1238.327 0.01864
0.02105 0.01472 0.55785 0.55844 0.14090 0.881 1238.356 0.01866
0.02108 0.01474 0.55859 0.55918 0.14278 1.006 1238.386 0.01869
0.02111 0.01475 0.55934 0.55993 0.14466 0.856 1238.416 0.01871
0.02114 0.01477 0.56008 0.56067 0.14654 0.879 1238.446 0.01874
0.02117 0.01479 0.56083 0.56142 0.14843 1.016 1238.476 0.01876
0.02119 0.01481 0.56157 0.56217 0.15031 1.005 1238.506 0.01878
0.02122 0.01483 0.56232 0.56291 0.15219 1.154 1238.536 0.01881
0.02125 0.01485 0.56306 0.56366 0.15407 0.927 1238.566 0.01883
0.02128 0.01487 0.56381 0.56440 0.15595 0.940 1238.595 0.01886
0.02131 0.01489 0.56455 0.56515 0.15783 0.901 1238.625 0.01888
0.02133 0.01491 0.56530 0.56590 0.15972 0.964 1238.655 0.01891
0.02136 0.01493 0.56604 0.56664 0.16160 0.925 1238.685 0.01893
0.02139 0.01495 0.56679 0.56739 0.16348 0.958 1238.715 0.01896
0.02142 0.01497 0.56753 0.56813 0.16536 0.927 1238.745 0.01898
0.02145 0.01499 0.56828 0.56888 0.16724 0.719 1238.775 0.01901
0.02148 0.01501 0.56902 0.56963 0.16913 0.788 1238.805 0.01903
0.02150 0.01503 0.56977 0.57037 0.17101 0.966 1238.834 0.01905
0.02153 0.01505 0.57051 0.57112 0.17289 0.999 1238.864 0.01908
0.02156 0.01507 0.57126 0.57186 0.17477 0.954 1238.894 0.01910
0.02159 0.01509 0.57201 0.57261 0.17665 0.877 1238.924 0.01913
0.02162 0.01511 0.57275 0.57336 0.17854 0.932 1238.954 0.01915
0.02164 0.01513 0.57350 0.57410 0.18042 0.941 1238.984 0.01918
0.02167 0.01515 0.57424 0.57485 0.18230 0.920 1239.014 0.01920
0.02170 0.01517 0.57499 0.57560 0.18419 1.033 1239.044 0.01923
0.02173 0.01519 0.57573 0.57634 0.18607 0.950 1239.073 0.01925
0.02176 0.01521 0.57648 0.57709 0.18795 1.079 1239.103 0.01928
0.02179 0.01523 0.57722 0.57784 0.18983 0.849 1239.133 0.01930
0.02181 0.01525 0.57797 0.57858 0.19172 1.031 1239.163 0.01933
0.02184 0.01527 0.57872 0.57933 0.19360 0.909 1239.193 0.01935
0.02187 0.01529 0.57946 0.58007 0.19548 0.946 1239.223 0.01937
0.02190 0.01531 0.58021 0.58082 0.19737 0.995 1239.253 0.01940
0.02193 0.01532 0.58095 0.58157 0.19925 0.920 1239.283 0.01942
0.02195 0.01534 0.58170 0.58231 0.20113 0.884 1239.313 0.01945
0.02198 0.01536 0.58244 0.58306 0.20302 1.146 1239.342 0.01947
0.02201 0.01538 0.58319 0.58381 0.20490 1.157 1239.372 0.01950
0.02204 0.01540 0.58394 0.58455 0.20678 0.994 1239.402 0.01952
0.02207 0.01542 0.58468 0.58530 0.20867 0.956 1239.432 0.01955
0.02209 0.01544 0.58543 0.58605 0.21055 1.032 1239.462 0.01957
0.02212 0.01546 0.58617 0.58679 0.21243 0.831 1239.492 0.01960
0.02215 0.01548 0.58692 0.58754 0.21432 1.204 1239.522 0.01962
0.02218 0.01550 0.58767 0.58829 0.21620 1.205 1239.552 0.01964
0.02221 0.01552 0.58841 0.58904 0.21809 0.907 1239.581 0.01967
0.02224 0.01554 0.58916 0.58978 0.21997 0.932 1239.611 0.01969
0.02226 0.01556 0.58990 0.59053 0.22185 1.032 1239.641 0.01972
0.02229 0.01558 0.59065 0.59128 0.22374 1.046 1239.671 0.01974
0.02232 0.01560 0.59140 0.59202 0.22562 0.933 1239.701 0.01977
0.02235 0.01562 0.59214 0.59277 0.22751 1.019 1239.731 0.01979
0.02238 0.01564 0.59289 0.59352 0.22939 1.019 1239.761 0.01982
0.02240 0.01566 0.59363 0.59426 0.23128 0.834 1239.791 0.01984
0.02243 0.01568 0.59438 0.59501 0.23316 0.894 1239.820 0.01987
0.02246 0.01570 0.59513 0.59576 0.23504 0.944 1239.850 0.01989
0.02249 0.01572 0.59587 0.59650 0.23693 0.980 1239.880 0.01992
0.02252 0.01574 0.59662 0.59725 0.23881 0.994 1239.910 0.01994
0.02255 0.01576 0.59737 0.59800 0.24070 1.044 1239.940 0.01996
0.02257 0.01578 0.59811 0.59875 0.24258 1.117 1239.970 0.01999
0.02260 0.01580 0.59886 0.59949 0.24447 1.017 1240.000 0.02001
0.02263 0.01582 0.59961 0.60024 0.24635 0.955 1240.030 0.02004
0.02266 0.01584 0.60035 0.60099 0.24824 1.166 1240.059 0.02006
0.02269 0.01586 0.60110 0.60174 0.25012 0.846 1240.089 0.02009
0.02271 0.01588 0.60184 0.60248 0.25201 1.106 1240.119 0.02011
0.02274 0.01590 0.60259 0.60323 0.25389 0.980 1240.149 0.02014
0.02277 0.01592 0.60334 0.60398 0.25578 0.930 1240.179 0.02016
0.02280 0.01594 0.60408 0.60472 0.25766 1.053 1240.209 0.02019
0.02283 0.01595 0.60483 0.60547 0.25955 0.966 1240.239 0.02021
0.02286 0.01597 0.60558 0.60622 0.26144 0.817 1240.269 0.02023
0.02288 0.01599 0.60632 0.60697 0.26332 1.028 1240.299 0.02026
0.02291 0.01601 0.60707 0.60771 0.26521 0.768 1240.328 0.02028
0.02294 0.01603 0.60782 0.60846 0.26709 0.978 1240.358 0.02031
0.02297 0.01605 0.60856 0.60921 0.26898 1.003 1240.388 0.02033
0.02300 0.01607 0.60931 0.60996 0.27086 0.990 1240.418 0.02036
0.02302 0.01609 0.61006 0.61070 0.27275 1.002 1240.448 0.02038
0.02305 0.01611 0.61081 0.61145 0.27464 1.151 1240.478 0.02041
0.02308 0.01613 0.61155 0.61220 0.27652 1.063 1240.508 0.02043
0.02311 0.01615 0.61230 0.61295 0.27841 1.249 1240.538 0.02046
0.02314 0.01617 0.61305 0.61370 0.28029 0.878 1240.567 0.02048
0.02317 0.01619 0.61379 0.61444 0.28218 1.063 1240.597 0.02050
0.02319 0.01621 0.61454 0.61519 0.28407 0.953 1240.627 0.02053
0.02322 0.01623 0.61529 0.61594 0.28595 1.039 1240.657 0.02055
0.02325 0.01625 0.61603 0.61669 0.28784 1.014 1240.687 0.02058
0.02328 0.01627 0.61678 0.61743 0.28973 1.112 1240.717 0.02060
0.02331 0.01629 0.61753 0.61818 0.29161 0.963 1240.747 0.02063
0.02333 0.01631 0.61827 0.61893 0.29350 1.086 1240.777 0.02065
0.02336 0.01633 0.61902 0.61968 0.29539 0.851 1240.806 0.02068
0.02339 0.01635 0.61977 0.62043 0.29727 1.074 1240.836 0.02070
0.02342 0.01637 0.62052 0.62117 0.29916 0.901 1240.866 0.02073
0.02345 0.01639 0.62126 0.62192 0.30105 1.284 1240.896 0.02075
0.02348 0.01641 0.62201 0.62267 0.30293 0.862 1240.926 0.02078
0.02350 0.01643 0.62276 0.62342 0.30482 0.944 1240.956 0.02080
0.02353 0.01645 0.62351 0.62417 0.30671 0.774 1240.986 0.02082
0.02356 0.01647 0.62425 0.62491 0.30859 0.952 1241.016 0.02085
0.02359 0.01649 0.62500 0.62566 0.31048 1.093 1241.045 0.02087
0.02362 0.01651 0.62575 0.62641 0.31237 1.146 1241.075 0.02090
0.02364 0.01653 0.62649 0.62716 0.31426 0.867 1241.105 0.02092
0.02367 0.01655 0.62724 0.62791 0.31614 1.108 1241.135 0.02095
0.02370 0.01657 0.62799 0.62866 0.31803 0.905 1241.165 0.02097
0.02373 0.01659 0.62874 0.62940 0.31992 0.931 1241.195 0.02100
0.02376 0.01661 0.62948 0.63015 0.32181 0.642 1241.225 0.02102
0.02379 0.01662 0.63023 0.63090 0.32369 1.327 1241.255 0.02105
0.02381 0.01664 0.63098 0.63165 0.32558 0.994 1241.285 0.02107
0.02384 0.01666 0.63173 0.63240 0.32747 0.986 1241.314 0.02109
0.02387 0.01668 0.63247 0.63315 0.32936 1.002 1241.344 0.02112
0.02390 0.01670 0.63322 0.63389 0.33125 1.133 1241.374 0.02114
0.02393 0.01672 0.63397 0.63464 0.33313 0.911 1241.404 0.02117
0.02395 0.01674 0.63472 0.63539 0.33502 0.841 1241.434 0.02119
0.02398 0.01676 0.63547 0.63614 0.33691 1.050 1241.464 0.02122
0.02401 0.01678 0.63621 0.63689 0.33880 1.150 1241.494 0.02124
0.02404 0.01680 0.63696 0.63764 0.34069 1.013 1241.524 0.02127
0.02407 0.01682 0.63771 0.63838 0.34258 1.124 1241.553 0.02129
0.02410 0.01684 0.63846 0.63913 0.34446 0.914 1241.583 0.02132
0.02412 0.01686 0.63920 0.63988 0.34635 1.038 1241.613 0.02134
0.02415 0.01688 0.63995 0.64063 0.34824 1.100 1241.643 0.02137
0.02418 0.01690 0.64070 0.64138 0.35013 1.014 1241.673 0.02139
0.02421 0.01692 0.64145 0.64213 0.35202 0.852 1241.703 0.02141
0.02424 0.01694 0.64220 0.64288 0.35391 0.816 1241.733 0.02144
0.02427 0.01696 0.64294 0.64363 0.35580 1.139 1241.763 0.02146
0.02429 0.01698 0.64369 0.64437 0.35769 1.016 1241.792 0.02149
0.02432 0.01700 0.64444 0.64512 0.35957 0.803 1241.822 0.02151
0.02435 0.01702 0.64519 0.64587 0.36146 1.028 1241.852 0.02154
0.02438 0.01704 0.64594 0.64662 0.36335 0.916 1241.882 0.02156
0.02441 0.01706 0.64668 0.64737 0.36524 0.930 1241.912 0.02159
0.02443 0.01708 0.64743 0.64812 0.36713 0.965 1241.942 0.02161
0.02446 0.01710 0.64818 0.64887 0.36902 1.055 1241.972 0.02164
0.02449 0.01712 0.64893 0.64962 0.37091 1.178 1242.002 0.02166
0.02452 0.01714 0.64968 0.65037 0.37280 1.053 1242.031 0.02168
0.02455 0.01716 0.65043 0.65111 0.37469 0.804 1242.061 0.02171
0.02458 0.01718 0.65117 0.65186 0.37658 0.880 1242.091 0.02173
0.02460 0.01720 0.65192 0.65261 0.37847 1.103 1242.121 0.02176
0.02463 0.01722 0.65267 0.65336 0.38036 0.805 1242.151 0.02178
0.02466 0.01724 0.65342 0.65411 0.38225 1.043 1242.181 0.02181
0.02469 0.01726 0.65417 0.65486 0.38414 1.071 1242.211 0.02183
0.02472 0.01728 0.65492 0.65561 0.38603 0.922 1242.241 0.02186
0.02475 0.01730 0.65566 0.65636 0.38792 0.959 1242.271 0.02188
0.02477 0.01732 0.65641 0.65711 0.38981 0.985 1242.300 0.02191
0.02480 0.01734 0.65716 0.65786 0.39170 1.023 1242.330 0.02193
0.02483 0.01735 0.65791 0.65861 0.39359 1.061 1242.360 0.02196
0.02486 0.01737 0.65866 0.65936 0.39548 0.911 1242.390 0.02198
0.02489 0.01739 0.65941 0.66011 0.39737 0.825 1242.420 0.02200
0.02491 0.01741 0.66016 0.66085 0.39926 0.974 1242.450 0.02203
0.02494 0.01743 0.66090 0.66160 0.40115 1.125 1242.480 0.02205
0.02497 0.01745 0.66165 0.66235 0.40304 1.052 1242.510 0.02208
0.02500 0.01747 0.66240 0.66310 0.40493 1.053 1242.539 0.02210
0.02503 0.01749 0.66315 0.66385 0.40682 0.902 1242.569 0.02213
0.02506 0.01751 0.66390 0.66460 0.40871 1.029 1242.599 0.02215
0.02508 0.01753 0.66465 0.66535 0.41060 0.866 1242.629 0.02218
0.02511 0.01755 0.66540 0.66610 0.41249 1.027 1242.659 0.02220
0.02514 0.01757 0.66615 0.66685 0.41438 0.914 1242.689 0.02223
0.02517 0.01759 0.66689 0.66760 0.41628 0.877 1242.719 0.02225
0.02520 0.01761 0.66764 0.66835 0.41817 1.015 1242.749 0.02227
0.02523 0.01763 0.66839 0.66910 0.42006 0.953 1242.778 0.02230
0.02525 0.01765 0.66914 0.66985 0.42195 0.841 1242.808 0.02232
0.02528 0.01767 0.66989 0.67060 0.42384 0.918 1242.838 0.02235
0.02531 0.01769 0.67064 0.67135 0.42573 0.957 1242.868 0.02237
0.02534 0.01771 0.67139 0.67210 0.42762 0.982 1242.898 0.02240
0.02537 0.01773 0.67214 0.67285 0.42951 0.844 1242.928 0.02242
0.02540 0.01775 0.67289 0.67360 0.43141 1.021 1242.958 0.02245
0.02542 0.01777 0.67363 0.67435 0.43330 0.932 1242.988 0.02247
0.02545 0.01779 0.67438 0.67510 0.43519 1.059 1243.017 0.02250
0.02548 0.01781 0.67513 0.67585 0.43708 1.173 1243.047 0.02252
0.02551 0.01783 0.67588 0.67660 0.43897 0.995 1243.077 0.02254
0.02554 0.01785 0.67663 0.67735 0.44087 0.893 1243.107 0.02257
0.02557 0.01787 0.67738 0.67810 0.44276 1.044 1243.137 0.02259
0.02559 0.01789 0.67813 0.67885 0.44465 1.005 1243.167 0.02262
0.02562 0.01791 0.67888 0.67960 0.44654 0.855 1243.197 0.02264
0.02565 0.01793 0.67963 0.68035 0.44843 0.981 1243.227 0.02267
0.02568 0.01795 0.68038 0.68110 0.45033 0.843 1243.257 0.02269
0.02571 0.01797 0.68113 0.68185 0.45222 1.146 1243.286 0.02272
0.02573 0.01799 0.68188 0.68260 0.45411 0.994 1243.316 0.02274
0.02576 0.01801 0.68263 0.68335 0.45600 1.033 1243.346 0.02277
0.02579 0.01803 0.68338 0.68410 0.45790 1.337 1243.376 0.02279
0.02582 0.01805 0.68412 0.68485 0.45979 1.097 1243.406 0.02282
0.02585 0.01807 0.68487 0.68560 0.46168 1.160 1243.436 0.02284
0.02588 0.01809 0.68562 0.68635 0.46357 0.962 1243.466 0.02286
0.02590 0.01811 0.68637 0.68710 0.46547 0.887 1243.496 0.02289
0.02593 0.01813 0.68712 0.68785 0.46736 1.079 1243.525 0.02291
0.02596 0.01815 0.68787 0.68860 0.46925 1.067 1243.555 0.02294
0.02599 0.01817 0.68862 0.68935 0.47114 0.991 1243.585 0.02296
0.02602 0.01818 0.68937 0.69010 0.47304 1.156 1243.615 0.02299
0.02605 0.01820 0.69012 0.69085 0.47493 1.030 1243.645 0.02301
0.02607 0.01822 0.69087 0.69160 0.47682 0.902 1243.675 0.02304
0.02610 0.01824 0.69162 0.69235 0.47872 0.916 1243.705 0.02306
0.02613 0.01826 0.69237 0.69310 0.48061 0.955 1243.735 0.02309
0.02616 0.01828 0.69312 0.69385 0.48250 0.969 1243.764 0.02311
0.02619 0.01830 0.69387 0.69461 0.48440 0.906 1243.794 0.02313
0.02622 0.01832 0.69462 0.69536 0.48629 1.073 1243.824 0.02316
0.02624 0.01834 0.69537 0.69611 0.48818 1.006 1243.854 0.02318
0.02627 0.01836 0.69612 0.69686 0.49008 1.107 1243.884 0.02321
0.02630 0.01838 0.69687 0.69761 0.49197 1.044 1243.914 0.02323
0.02633 0.01840 0.69762 0.69836 0.49387 0.954 1243.944 0.02326
0.02636 0.01842 0.69837 0.69911 0.49576 0.993 1243.974 0.02328
0.02639 0.01844 0.69912 0.69986 0.49765 0.957 1244.003 0.02331
0.02641 0.01846 0.69987 0.70061 0.49955 1.009 1244.033 0.02333
0.02644 0.01848 0.70062 0.70136 0.50144 1.081 1244.063 0.02336
0.02647 0.01850 0.70137 0.70211 0.50334 1.187 1244.093 0.02338
0.02650 0.01852 0.70212 0.70286 0.50523 0.911 1244.123 0.02341
0.02653 0.01854 0.70287 0.70361 0.50712 0.949 1244.153 0.02343
0.02656 0.01856 0.70362 0.70437 0.50902 0.991 1244.183 0.02345
0.02658 0.01858 0.70437 0.70512 0.51091 1.139 1244.213 0.02348
0.02661 0.01860 0.70512 0.70587 0.51281 1.033 1244.243 0.02350
0.02664 0.01862 0.70587 0.70662 0.51470 0.973 1244.272 0.02353
0.02667 0.01864 0.70662 0.70737 0.51660 0.879 1244.302 0.02355
0.02670 0.01866 0.70737 0.70812 0.51849 0.994 1244.332 0.02358
0.02673 0.01868 0.70812 0.70887 0.52039 0.773 1244.362 0.02360
0.02675 0.01870 0.70887 0.70962 0.52228 1.028 1244.392 0.02363
0.02678 0.01872 0.70962 0.71037 0.52418 0.965 1244.422 0.02365
0.02681 0.01874 0.71037 0.71112 0.52607 0.959 1244.452 0.02368
0.02684 0.01876 0.71112 0.71188 0.52797 1.056 1244.482 0.02370
0.02687 0.01878 0.71187 0.71263 0.52986 0.848 1244.511 0.02372
0.02690 0.01880 0.71262 0.71338 0.53176 0.803 1244.541 0.02375
0.02692 0.01882 0.71337 0.71413 0.53365 0.968 1244.571 0.02377
0.02695 0.01884 0.71412 0.71488 0.53555 0.916 1244.601 0.02380
0.02698 0.01886 0.71488 0.71563 0.53744 0.889 1244.631 0.02382
0.02701 0.01888 0.71563 0.71638 0.53934 0.875 1244.661 0.02385
0.02704 0.01890 0.71638 0.71714 0.54123 0.865 1244.691 0.02387
0.02707 0.01892 0.71713 0.71789 0.54313 0.916 1244.721 0.02390
0.02709 0.01894 0.71788 0.71864 0.54502 0.917 1244.750 0.02392
0.02712 0.01896 0.71863 0.71939 0.54692 0.891 1244.780 0.02395
0.02715 0.01898 0.71938 0.72014 0.54882 0.970 1244.810 0.02397
0.02718 0.01900 0.72013 0.72089 0.55071 1.050 1244.840 0.02400
0.02721 0.01902 0.72088 0.72164 0.55261 0.868 1244.870 0.02402
0.02724 0.01904 0.72163 0.72240 0.55450 0.699 1244.900 0.02404
0.02726 0.01906 0.72238 0.72315 0.55640 1.014 1244.930 0.02407
0.02729 0.01908 0.72313 0.72390 0.55829 0.961 1244.960 0.02409
0.02732 0.01910 0.72388 0.72465 0.56019 1.052 1244.989 0.02412
0.02735 0.01912 0.72463 0.72540 0.56209 0.936 1245.019 0.02414
0.02738 0.01913 0.72539 0.72615 0.56398 1.015 1245.049 0.02417
0.02741 0.01915 0.72614 0.72691 0.56588 0.912 1245.079 0.02419
0.02743 0.01917 0.72689 0.72766 0.56778 0.926 1245.109 0.02422
0.02746 0.01919 0.72764 0.72841 0.56967 1.058 1245.139 0.02424
0.02749 0.01921 0.72839 0.72916 0.57157 1.072 1245.169 0.02427
0.02752 0.01923 0.72914 0.72991 0.57347 0.955 1245.199 0.02429
0.02755 0.01925 0.72989 0.73066 0.57536 1.113 1245.229 0.02431
0.02758 0.01927 0.73064 0.73142 0.57726 0.759 1245.258 0.02434
0.02760 0.01929 0.73139 0.73217 0.57916 1.063 1245.288 0.02436
0.02763 0.01931 0.73215 0.73292 0.58105 0.852 1245.318 0.02439
0.02766 0.01933 0.73290 0.73367 0.58295 0.985 1245.348 0.02441
0.02769 0.01935 0.73365 0.73442 0.58485 0.920 1245.378 0.02444
0.02772 0.01937 0.73440 0.73518 0.58674 0.920 1245.408 0.02446
0.02775 0.01939 0.73515 0.73593 0.58864 0.882 1245.438 0.02449
0.02777 0.01941 0.73590 0.73668 0.59054 1.003 1245.468 0.02451
0.02780 0.01943 0.73665 0.73743 0.59244 1.133 1245.497 0.02454
0.02783 0.01945 0.73740 0.73819 0.59433 0.974 1245.527 0.02456
