x y z dist_scaled dist_frac flux_norm wavelength redshift
0.02755 0.02775 0.50106 0.50258 0.00000 1.161 1236.115 0.01682
0.02759 0.02779 0.50180 0.50333 0.00188 1.261 1236.145 0.01684
0.02763 0.02783 0.50254 0.50407 0.00375 0.792 1236.175 0.01687
0.02767 0.02787 0.50328 0.50481 0.00563 0.967 1236.205 0.01689
0.02771 0.02791 0.50403 0.50556 0.00751 1.119 1236.235 0.01692
0.02775 0.02795 0.50477 0.50630 0.00938 0.873 1236.265 0.01694
0.02779 0.02799 0.50551 0.50705 0.01126 0.899 1236.295 0.01697
0.02783 0.02803 0.50625 0.50779 0.01313 1.200 1236.325 0.01699
0.02787 0.02808 0.50699 0.50853 0.01501 0.902 1236.355 0.01701
0.02791 0.02812 0.50773 0.50928 0.01689 0.930 1236.384 0.01704
0.02796 0.02816 0.50848 0.51002 0.01876 1.208 1236.414 0.01706
0.02800 0.02820 0.50922 0.51077 0.02064 0.884 1236.444 0.01709
0.02804 0.02824 0.50996 0.51151 0.02252 1.036 1236.474 0.01711
0.02808 0.02828 0.51070 0.51225 0.02440 0.684 1236.504 0.01714
0.02812 0.02832 0.51144 0.51300 0.02627 0.914 1236.534 0.01716
0.02816 0.02836 0.51218 0.51374 0.02815 0.965 1236.564 0.01719
0.02820 0.02840 0.51293 0.51449 0.03003 1.018 1236.594 0.01721
0.02824 0.02845 0.51367 0.51523 0.03190 0.919 1236.623 0.01724
0.02828 0.02849 0.51441 0.51597 0.03378 1.176 1236.653 0.01726
0.02832 0.02853 0.51515 0.51672 0.03566 0.848 1236.683 0.01729
0.02836 0.02857 0.51589 0.51746 0.03754 0.926 1236.713 0.01731
0.02840 0.02861 0.51664 0.51821 0.03941 0.850 1236.743 0.01733
0.02844 0.02865 0.51738 0.51895 0.04129 1.057 1236.773 0.01736
0.02849 0.02869 0.51812 0.51970 0.04317 1.085 1236.803 0.01738
0.02853 0.02873 0.51886 0.52044 0.04505 1.163 1236.833 0.01741
0.02857 0.02877 0.51960 0.52118 0.04692 1.063 1236.862 0.01743
0.02861 0.02882 0.52035 0.52193 0.04880 1.143 1236.892 0.01746
0.02865 0.02886 0.52109 0.52267 0.05068 0.731 1236.922 0.01748
0.02869 0.02890 0.52183 0.52342 0.05256 0.757 1236.952 0.01751
0.02873 0.02894 0.52257 0.52416 0.05444 0.759 1236.982 0.01753
0.02877 0.02898 0.52332 0.52491 0.05631 1.150 1237.012 0.01756
0.02881 0.02902 0.52406 0.52565 0.05819 1.074 1237.042 0.01758
0.02885 0.02906 0.52480 0.52640 0.06007 0.996 1237.072 0.01760
0.02889 0.02910 0.52554 0.52714 0.06195 0.737 1237.101 0.01763
0.02893 0.02914 0.52628 0.52788 0.06383 0.713 1237.131 0.01765
0.02898 0.02918 0.52703 0.52863 0.06571 1.055 1237.161 0.01768
0.02902 0.02923 0.52777 0.52937 0.06758 1.214 1237.191 0.01770
0.02906 0.02927 0.52851 0.53012 0.06946 0.743 1237.221 0.01773
0.02910 0.02931 0.52925 0.53086 0.07134 0.823 1237.251 0.01775
0.02914 0.02935 0.53000 0.53161 0.07322 0.587 1237.281 0.01778
0.02918 0.02939 0.53074 0.53235 0.07510 0.694 1237.311 0.01780
0.02922 0.02943 0.53148 0.53310 0.07698 0.907 1237.341 0.01783
0.02926 0.02947 0.53222 0.53384 0.07886 0.962 1237.370 0.01785
0.02930 0.02951 0.53297 0.53459 0.08074 1.122 1237.400 0.01788
0.02934 0.02956 0.53371 0.53533 0.08261 0.806 1237.430 0.01790
0.02938 0.02960 0.53445 0.53608 0.08449 0.942 1237.460 0.01792
0.02942 0.02964 0.53520 0.53682 0.08637 0.783 1237.490 0.01795
0.02947 0.02968 0.53594 0.53757 0.08825 0.971 1237.520 0.01797
0.02951 0.02972 0.53668 0.53831 0.09013 0.812 1237.550 0.01800
0.02955 0.02976 0.53742 0.53906 0.09201 0.813 1237.580 0.01802
0.02959 0.02980 0.53817 0.53980 0.09389 1.003 1237.609 0.01805
0.02963 0.02984 0.53891 0.54055 0.09577 1.030 1237.639 0.01807
0.02967 0.02988 0.53965 0.54129 0.09765 1.381 1237.669 0.01810
0.02971 0.02993 0.54039 0.54204 0.09953 0.790 1237.699 0.01812
0.02975 0.02997 0.54114 0.54278 0.10141 0.874 1237.729 0.01815
0.02979 0.03001 0.54188 0.54353 0.10329 1.010 1237.759 0.01817
0.02983 0.03005 0.54262 0.54427 0.10517 0.958 1237.789 0.01819
0.02987 0.03009 0.54337 0.54502 0.10705 1.286 1237.819 0.01822
0.02991 0.03013 0.54411 0.54576 0.10893 0.880 1237.848 0.01824
0.02996 0.03017 0.54485 0.54651 0.11081 0.990 1237.878 0.01827
0.03000 0.03021 0.54560 0.54725 0.11269 1.127 1237.908 0.01829
0.03004 0.03025 0.54634 0.54800 0.11457 1.129 1237.938 0.01832
0.03008 0.03030 0.54708 0.54874 0.11645 1.159 1237.968 0.01834
0.03012 0.03034 0.54782 0.54949 0.11833 0.748 1237.998 0.01837
0.03016 0.03038 0.54857 0.55024 0.12021 0.858 1238.028 0.01839
0.03020 0.03042 0.54931 0.55098 0.12209 0.804 1238.058 0.01842
0.03024 0.03046 0.55005 0.55173 0.12397 0.998 1238.087 0.01844
0.03028 0.03050 0.55080 0.55247 0.12585 1.054 1238.117 0.01847
0.03032 0.03054 0.55154 0.55322 0.12773 0.753 1238.147 0.01849
0.03036 0.03058 0.55228 0.55396 0.12961 0.589 1238.177 0.01851
0.03040 0.03062 0.55303 0.55471 0.13149 0.728 1238.207 0.01854
0.03045 0.03067 0.55377 0.55545 0.13338 0.978 1238.237 0.01856
0.03049 0.03071 0.55451 0.55620 0.13526 1.256 1238.267 0.01859
0.03053 0.03075 0.55526 0.55695 0.13714 1.064 1238.297 0.01861
0.03057 0.03079 0.55600 0.55769 0.13902 0.899 1238.327 0.01864
0.03061 0.03083 0.55674 0.55844 0.14090 0.844 1238.356 0.01866
0.03065 0.03087 0.55749 0.55918 0.14278 1.149 1238.386 0.01869
0.03069 0.03091 0.55823 0.55993 0.14466 0.816 1238.416 0.01871
0.03073 0.03095 0.55898 0.56067 0.14654 0.984 1238.446 0.01874
0.03077 0.03100 0.55972 0.56142 0.14843 0.957 1238.476 0.01876
0.03081 0.03104 0.56046 0.56217 0.15031 1.377 1238.506 0.01878
0.03085 0.03108 0.56121 0.56291 0.15219 1.128 1238.536 0.01881
0.03090 0.03112 0.56195 0.56366 0.15407 1.017 1238.566 0.01883
0.03094 0.03116 0.56269 0.56440 0.15595 0.991 1238.595 0.01886
0.03098 0.03120 0.56344 0.56515 0.15783 1.019 1238.625 0.01888
0.03102 0.03124 0.56418 0.56590 0.15972 0.992 1238.655 0.01891
0.03106 0.03128 0.56492 0.56664 0.16160 0.768 1238.685 0.01893
0.03110 0.03132 0.56567 0.56739 0.16348 0.910 1238.715 0.01896
0.03114 0.03137 0.56641 0.56813 0.16536 1.081 1238.745 0.01898
0.03118 0.03141 0.56716 0.56888 0.16724 1.025 1238.775 0.01901
0.03122 0.03145 0.56790 0.56963 0.16913 0.996 1238.805 0.01903
0.03126 0.03149 0.56864 0.57037 0.17101 0.657 1238.834 0.01905
0.03130 0.03153 0.56939 0.57112 0.17289 0.969 1238.864 0.01908
0.03135 0.03157 0.57013 0.57186 0.17477 0.942 1238.894 0.01910
0.03139 0.03161 0.57088 0.57261 0.17665 0.916 1238.924 0.01913
0.03143 0.03165 0.57162 0.57336 0.17854 1.087 1238.954 0.01915
0.03147 0.03170 0.57236 0.57410 0.18042 0.975 1238.984 0.01918
0.03151 0.03174 0.57311 0.57485 0.18230 1.091 1239.014 0.01920
0.03155 0.03178 0.57385 0.57560 0.18419 0.693 1239.044 0.01923
0.03159 0.03182 0.57460 0.57634 0.18607 0.778 1239.073 0.01925
0.03163 0.03186 0.57534 0.57709 0.18795 0.922 1239.103 0.01928
0.03167 0.03190 0.57608 0.57784 0.18983 1.152 1239.133 0.01930
0.03171 0.03194 0.57683 0.57858 0.19172 0.781 1239.163 0.01933
0.03175 0.03198 0.57757 0.57933 0.19360 0.753 1239.193 0.01935
0.03180 0.03203 0.57832 0.58007 0.19548 0.954 1239.223 0.01937
0.03184 0.03207 0.57906 0.58082 0.19737 0.811 1239.253 0.01940
0.03188 0.03211 0.57981 0.58157 0.19925 0.811 1239.283 0.01942
0.03192 0.03215 0.58055 0.58231 0.20113 0.869 1239.313 0.01945
0.03196 0.03219 0.58129 0.58306 0.20302 0.812 1239.342 0.01947
0.03200 0.03223 0.58204 0.58381 0.20490 0.987 1239.372 0.01950
0.03204 0.03227 0.58278 0.58455 0.20678 1.047 1239.402 0.01952
0.03208 0.03231 0.58353 0.58530 0.20867 1.076 1239.432 0.01955
0.03212 0.03235 0.58427 0.58605 0.21055 0.847 1239.462 0.01957
0.03216 0.03240 0.58502 0.58679 0.21243 1.194 1239.492 0.01960
0.03220 0.03244 0.58576 0.58754 0.21432 1.166 1239.522 0.01962
0.03225 0.03248 0.58651 0.58829 0.21620 0.963 1239.552 0.01964
0.03229 0.03252 0.58725 0.58904 0.21809 1.081 1239.581 0.01967
0.03233 0.03256 0.58799 0.58978 0.21997 0.877 1239.611 0.01969
0.03237 0.03260 0.58874 0.59053 0.22185 1.110 1239.641 0.01972
0.03241 0.03264 0.58948 0.59128 0.22374 0.908 1239.671 0.01974
0.03245 0.03268 0.59023 0.59202 0.22562 0.792 1239.701 0.01977
0.03249 0.03273 0.59097 0.59277 0.22751 0.996 1239.731 0.01979
0.03253 0.03277 0.59172 0.59352 0.22939 0.733 1239.761 0.01982
0.03257 0.03281 0.59246 0.59426 0.23128 0.822 1239.791 0.01984
0.03261 0.03285 0.59321 0.59501 0.23316 1.055 1239.820 0.01987
0.03265 0.03289 0.59395 0.59576 0.23504 0.942 1239.850 0.01989
0.03270 0.03293 0.59470 0.59650 0.23693 1.030 1239.880 0.01992
0.03274 0.03297 0.59544 0.59725 0.23881 1.002 1239.910 0.01994
0.03278 0.03301 0.59619 0.59800 0.24070 0.621 1239.940 0.01996
0.03282 0.03306 0.59693 0.59875 0.24258 0.916 1239.970 0.01999
0.03286 0.03310 0.59768 0.59949 0.24447 0.770 1240.000 0.02001
0.03290 0.03314 0.59842 0.60024 0.24635 1.211 1240.030 0.02004
0.03294 0.03318 0.59917 0.60099 0.24824 1.095 1240.059 0.02006
0.03298 0.03322 0.59991 0.60174 0.25012 1.038 1240.089 0.02009
0.03302 0.03326 0.60066 0.60248 0.25201 1.127 1240.119 0.02011
0.03306 0.03330 0.60140 0.60323 0.25389 0.833 1240.149 0.02014
0.03311 0.03334 0.60215 0.60398 0.25578 1.187 1240.179 0.02016
0.03315 0.03339 0.60289 0.60472 0.25766 0.982 1240.209 0.02019
0.03319 0.03343 0.60364 0.60547 0.25955 0.689 1240.239 0.02021
0.03323 0.03347 0.60438 0.60622 0.26144 1.013 1240.269 0.02023
0.03327 0.03351 0.60513 0.60697 0.26332 0.867 1240.299 0.02026
0.03331 0.03355 0.60587 0.60771 0.26521 1.104 1240.328 0.02028
0.03335 0.03359 0.60662 0.60846 0.26709 1.134 1240.358 0.02031
0.03339 0.03363 0.60736 0.60921 0.26898 1.165 1240.388 0.02033
0.03343 0.03367 0.60811 0.60996 0.27086 0.958 1240.418 0.02036
0.03347 0.03372 0.60885 0.61070 0.27275 1.167 1240.448 0.02038
0.03352 0.03376 0.60960 0.61145 0.27464 1.108 1240.478 0.02041
0.03356 0.03380 0.61034 0.61220 0.27652 0.931 1240.508 0.02043
0.03360 0.03384 0.61109 0.61295 0.27841 0.992 1240.538 0.02046
0.03364 0.03388 0.61184 0.61370 0.28029 0.932 1240.567 0.02048
0.03368 0.03392 0.61258 0.61444 0.28218 1.199 1240.597 0.02050
0.03372 0.03396 0.61333 0.61519 0.28407 0.934 1240.627 0.02053
0.03376 0.03401 0.61407 0.61594 0.28595 1.025 1240.657 0.02055
0.03380 0.03405 0.61482 0.61669 0.28784 0.847 1240.687 0.02058
0.03384 0.03409 0.61556 0.61743 0.28973 1.472 1240.717 0.02060
0.03388 0.03413 0.61631 0.61818 0.29161 1.324 1240.747 0.02063
0.03392 0.03417 0.61705 0.61893 0.29350 0.998 1240.777 0.02065
0.03397 0.03421 0.61780 0.61968 0.29539 1.148 1240.806 0.02068
0.03401 0.03425 0.61855 0.62043 0.29727 1.149 1240.836 0.02070
0.03405 0.03429 0.61929 0.62117 0.29916 0.938 1240.866 0.02073
0.03409 0.03434 0.62004 0.62192 0.30105 1.087 1240.896 0.02075
0.03413 0.03438 0.62078 0.62267 0.30293 1.147 1240.926 0.02078
0.03417 0.03442 0.62153 0.62342 0.30482 1.088 1240.956 0.02080
0.03421 0.03446 0.62227 0.62417 0.30671 0.819 1240.986 0.02082
0.03425 0.03450 0.62302 0.62491 0.30859 1.059 1241.016 0.02085
0.03429 0.03454 0.62377 0.62566 0.31048 1.179 1241.045 0.02087
0.03433 0.03458 0.62451 0.62641 0.31237 1.329 1241.075 0.02090
0.03438 0.03462 0.62526 0.62716 0.31426 1.240 1241.105 0.02092
0.03442 0.03467 0.62600 0.62791 0.31614 1.090 1241.135 0.02095
0.03446 0.03471 0.62675 0.62866 0.31803 0.910 1241.165 0.02097
0.03450 0.03475 0.62750 0.62940 0.31992 0.911 1241.195 0.02100
0.03454 0.03479 0.62824 0.63015 0.32181 1.302 1241.225 0.02102
0.03458 0.03483 0.62899 0.63090 0.32369 1.061 1241.255 0.02105
0.03462 0.03487 0.62973 0.63165 0.32558 0.941 1241.285 0.02107
0.03466 0.03491 0.63048 0.63240 0.32747 1.151 1241.314 0.02109
0.03470 0.03496 0.63123 0.63315 0.32936 0.849 1241.344 0.02112
0.03475 0.03500 0.63197 0.63389 0.33125 0.910 1241.374 0.02114
0.03479 0.03504 0.63272 0.63464 0.33313 0.851 1241.404 0.02117
0.03483 0.03508 0.63346 0.63539 0.33502 1.332 1241.434 0.02119
0.03487 0.03512 0.63421 0.63614 0.33691 0.911 1241.464 0.02122
0.03491 0.03516 0.63496 0.63689 0.33880 0.911 1241.494 0.02124
0.03495 0.03520 0.63570 0.63764 0.34069 1.122 1241.524 0.02127
0.03499 0.03524 0.63645 0.63838 0.34258 0.972 1241.553 0.02129
0.03503 0.03529 0.63720 0.63913 0.34446 0.943 1241.583 0.02132
0.03507 0.03533 0.63794 0.63988 0.34635 0.974 1241.613 0.02134
0.03511 0.03537 0.63869 0.64063 0.34824 1.124 1241.643 0.02137
0.03516 0.03541 0.63944 0.64138 0.35013 1.124 1241.673 0.02139
0.03520 0.03545 0.64018 0.64213 0.35202 0.944 1241.703 0.02141
0.03524 0.03549 0.64093 0.64288 0.35391 1.317 1241.733 0.02144
0.03528 0.03553 0.64167 0.64363 0.35580 1.132 1241.763 0.02146
0.03532 0.03558 0.64242 0.64437 0.35769 0.989 1241.792 0.02149
0.03536 0.03562 0.64317 0.64512 0.35957 1.140 1241.822 0.02151
0.03540 0.03566 0.64391 0.64587 0.36146 0.911 1241.852 0.02154
0.03544 0.03570 0.64466 0.64662 0.36335 0.765 1241.882 0.02156
0.03548 0.03574 0.64541 0.64737 0.36524 1.197 1241.912 0.02159
0.03552 0.03578 0.64615 0.64812 0.36713 1.296 1241.942 0.02161
0.03557 0.03582 0.64690 0.64887 0.36902 1.128 1241.972 0.02164
0.03561 0.03586 0.64765 0.64962 0.37091 1.029 1242.002 0.02166
0.03565 0.03591 0.64839 0.65037 0.37280 1.368 1242.031 0.02168
0.03569 0.03595 0.64914 0.65111 0.37469 0.924 1242.061 0.02171
0.03573 0.03599 0.64989 0.65186 0.37658 0.900 1242.091 0.02173
0.03577 0.03603 0.65063 0.65261 0.37847 0.778 1242.121 0.02176
0.03581 0.03607 0.65138 0.65336 0.38036 1.097 1242.151 0.02178
0.03585 0.03611 0.65213 0.65411 0.38225 0.862 1242.181 0.02181
0.03589 0.03615 0.65288 0.65486 0.38414 1.210 1242.211 0.02183
0.03594 0.03620 0.65362 0.65561 0.38603 1.013 1242.241 0.02186
0.03598 0.03624 0.65437 0.65636 0.38792 0.949 1242.271 0.02188
0.03602 0.03628 0.65512 0.65711 0.38981 1.162 1242.300 0.02191
0.03606 0.03632 0.65586 0.65786 0.39170 0.767 1242.330 0.02193
0.03610 0.03636 0.65661 0.65861 0.39359 1.010 1242.360 0.02196
0.03614 0.03640 0.65736 0.65936 0.39548 1.192 1242.390 0.02198
0.03618 0.03644 0.65810 0.66011 0.39737 1.099 1242.420 0.02200
0.03622 0.03648 0.65885 0.66085 0.39926 1.099 1242.450 0.02203
0.03626 0.03653 0.65960 0.66160 0.40115 1.099 1242.480 0.02205
0.03631 0.03657 0.66035 0.66235 0.40304 1.463 1242.510 0.02208
0.03635 0.03661 0.66109 0.66310 0.40493 1.098 1242.539 0.02210
0.03639 0.03665 0.66184 0.66385 0.40682 0.795 1242.569 0.02213
0.03643 0.03669 0.66259 0.66460 0.40871 1.037 1242.599 0.02215
0.03647 0.03673 0.66334 0.66535 0.41060 1.280 1242.629 0.02218
0.03651 0.03677 0.66408 0.66610 0.41249 0.947 1242.659 0.02220
0.03655 0.03682 0.66483 0.66685 0.41438 0.886 1242.689 0.02223
0.03659 0.03686 0.66558 0.66760 0.41628 0.886 1242.719 0.02225
0.03663 0.03690 0.66632 0.66835 0.41817 1.158 1242.749 0.02227
0.03667 0.03694 0.66707 0.66910 0.42006 0.791 1242.778 0.02230
0.03672 0.03698 0.66782 0.66985 0.42195 0.913 1242.808 0.02232
0.03676 0.03702 0.66857 0.67060 0.42384 0.853 1242.838 0.02235
0.03680 0.03706 0.66931 0.67135 0.42573 1.005 1242.868 0.02237
0.03684 0.03711 0.67006 0.67210 0.42762 1.218 1242.898 0.02240
0.03688 0.03715 0.67081 0.67285 0.42951 0.944 1242.928 0.02242
0.03692 0.03719 0.67156 0.67360 0.43141 0.853 1242.958 0.02245
0.03696 0.03723 0.67230 0.67435 0.43330 0.702 1242.988 0.02247
0.03700 0.03727 0.67305 0.67510 0.43519 1.188 1243.017 0.02250
0.03704 0.03731 0.67380 0.67585 0.43708 1.067 1243.047 0.02252
0.03709 0.03735 0.67455 0.67660 0.43897 1.037 1243.077 0.02254
0.03713 0.03740 0.67530 0.67735 0.44087 1.190 1243.107 0.02257
0.03717 0.03744 0.67604 0.67810 0.44276 1.129 1243.137 0.02259
0.03721 0.03748 0.67679 0.67885 0.44465 1.008 1243.167 0.02262
0.03725 0.03752 0.67754 0.67960 0.44654 1.009 1243.197 0.02264
0.03729 0.03756 0.67829 0.68035 0.44843 1.071 1243.227 0.02267
0.03733 0.03760 0.67903 0.68110 0.45033 0.828 1243.257 0.02269
0.03737 0.03764 0.67978 0.68185 0.45222 1.042 1243.286 0.02272
0.03741 0.03769 0.68053 0.68260 0.45411 0.861 1243.316 0.02274
0.03746 0.03773 0.68128 0.68335 0.45600 0.952 1243.346 0.02277
0.03750 0.03777 0.68203 0.68410 0.45790 1.073 1243.376 0.02279
0.03754 0.03781 0.68277 0.68485 0.45979 0.892 1243.406 0.02282
0.03758 0.03785 0.68352 0.68560 0.46168 0.830 1243.436 0.02284
0.03762 0.03789 0.68427 0.68635 0.46357 0.741 1243.466 0.02286
0.03766 0.03793 0.68502 0.68710 0.46547 0.559 1243.496 0.02289
0.03770 0.03798 0.68577 0.68785 0.46736 0.893 1243.525 0.02291
0.03774 0.03802 0.68651 0.68860 0.46925 0.710 1243.555 0.02294
0.03778 0.03806 0.68726 0.68935 0.47114 0.223 1243.585 0.02296
0.03783 0.03810 0.68801 0.69010 0.47304 0.710 1243.615 0.02299
0.03787 0.03814 0.68876 0.69085 0.47493 0.527 1243.645 0.02301
0.03791 0.03818 0.68951 0.69160 0.47682 0.557 1243.675 0.02304
0.03795 0.03822 0.69025 0.69235 0.47872 0.527 1243.705 0.02306
0.03799 0.03827 0.69100 0.69310 0.48061 0.686 1243.735 0.02309
0.03803 0.03831 0.69175 0.69385 0.48250 0.880 1243.764 0.02311
0.03807 0.03835 0.69250 0.69461 0.48440 0.840 1243.794 0.02313
0.03811 0.03839 0.69325 0.69536 0.48629 0.883 1243.824 0.02316
0.03816 0.03843 0.69400 0.69611 0.48818 0.587 1243.854 0.02318
0.03820 0.03847 0.69474 0.69686 0.49008 0.817 1243.884 0.02321
0.03824 0.03851 0.69549 0.69761 0.49197 0.739 1243.914 0.02323
0.03828 0.03856 0.69624 0.69836 0.49387 1.072 1243.944 0.02326
0.03832 0.03860 0.69699 0.69911 0.49576 0.986 1243.974 0.02328
0.03836 0.03864 0.69774 0.69986 0.49765 1.240 1244.003 0.02331
0.03840 0.03868 0.69849 0.70061 0.49955 1.003 1244.033 0.02333
0.03844 0.03872 0.69924 0.70136 0.50144 1.003 1244.063 0.02336
0.03848 0.03876 0.69998 0.70211 0.50334 0.738 1244.093 0.02338
0.03853 0.03880 0.70073 0.70286 0.50523 0.870 1244.123 0.02341
0.03857 0.03885 0.70148 0.70361 0.50712 1.081 1244.153 0.02343
0.03861 0.03889 0.70223 0.70437 0.50902 1.016 1244.183 0.02345
0.03865 0.03893 0.70298 0.70512 0.51091 1.145 1244.213 0.02348
0.03869 0.03897 0.70373 0.70587 0.51281 0.725 1244.243 0.02350
0.03873 0.03901 0.70448 0.70662 0.51470 1.188 1244.272 0.02353
0.03877 0.03905 0.70523 0.70737 0.51660 0.857 1244.302 0.02355
0.03881 0.03909 0.70597 0.70812 0.51849 0.889 1244.332 0.02358
0.03885 0.03914 0.70672 0.70887 0.52039 0.994 1244.362 0.02360
0.03890 0.03918 0.70747 0.70962 0.52228 1.106 1244.392 0.02363
0.03894 0.03922 0.70822 0.71037 0.52418 0.613 1244.422 0.02365
0.03898 0.03926 0.70897 0.71112 0.52607 0.765 1244.452 0.02368
0.03902 0.03930 0.70972 0.71188 0.52797 1.431 1244.482 0.02370
0.03906 0.03934 0.71047 0.71263 0.52986 1.158 1244.511 0.02372
0.03910 0.03938 0.71122 0.71338 0.53176 1.341 1244.541 0.02375
0.03914 0.03943 0.71197 0.71413 0.53365 0.887 1244.571 0.02377
0.03918 0.03947 0.71271 0.71488 0.53555 1.038 1244.601 0.02380
0.03923 0.03951 0.71346 0.71563 0.53744 1.369 1244.631 0.02382
0.03927 0.03955 0.71421 0.71638 0.53934 0.915 1244.661 0.02385
0.03931 0.03959 0.71496 0.71714 0.54123 1.036 1244.691 0.02387
0.03935 0.03963 0.71571 0.71789 0.54313 0.944 1244.721 0.02390
0.03939 0.03968 0.71646 0.71864 0.54502 0.853 1244.750 0.02392
0.03943 0.03972 0.71721 0.71939 0.54692 0.946 1244.780 0.02395
0.03947 0.03976 0.71796 0.72014 0.54882 1.129 1244.810 0.02397
0.03951 0.03980 0.71871 0.72089 0.55071 1.309 1244.840 0.02400
0.03955 0.03984 0.71946 0.72164 0.55261 1.280 1244.870 0.02402
0.03960 0.03988 0.72021 0.72240 0.55450 0.734 1244.900 0.02404
0.03964 0.03992 0.72096 0.72315 0.55640 1.432 1244.930 0.02407
0.03968 0.03997 0.72171 0.72390 0.55829 1.036 1244.960 0.02409
0.03972 0.04001 0.72245 0.72465 0.56019 0.732 1244.989 0.02412
0.03976 0.04005 0.72320 0.72540 0.56209 0.914 1245.019 0.02414
0.03980 0.04009 0.72395 0.72615 0.56398 0.731 1245.049 0.02417
0.03984 0.04013 0.72470 0.72691 0.56588 0.821 1245.079 0.02419
0.03988 0.04017 0.72545 0.72766 0.56778 0.973 1245.109 0.02422
0.03993 0.04021 0.72620 0.72841 0.56967 0.883 1245.139 0.02424
0.03997 0.04026 0.72695 0.72916 0.57157 0.882 1245.169 0.02427
0.04001 0.04030 0.72770 0.72991 0.57347 1.064 1245.199 0.02429
0.04005 0.04034 0.72845 0.73066 0.57536 0.883 1245.229 0.02431
0.04009 0.04038 0.72920 0.73142 0.57726 1.336 1245.258 0.02434
0.04013 0.04042 0.72995 0.73217 0.57916 0.913 1245.288 0.02436
0.04017 0.04046 0.73070 0.73292 0.58105 1.003 1245.318 0.02439
0.04021 0.04051 0.73145 0.73367 0.58295 0.914 1245.348 0.02441
0.04026 0.04055 0.73220 0.73442 0.58485 0.792 1245.378 0.02444
0.04030 0.04059 0.73295 0.73518 0.58674 0.791 1245.408 0.02446
0.04034 0.04063 0.73370 0.73593 0.58864 0.850 1245.438 0.02449
0.04038 0.04067 0.73445 0.73668 0.59054 0.910 1245.468 0.02451
0.04042 0.04071 0.73520 0.73743 0.59244 1.333 1245.497 0.02454
0.04046 0.04075 0.73595 0.73819 0.59433 0.940 1245.527 0.02456
