x y z dist_scaled dist_frac flux_norm wavelength redshift
0.01589 0.02333 0.50179 0.50258 0.00000 0.999 1236.115 0.01682
0.01592 0.02337 0.50253 0.50333 0.00188 0.989 1236.145 0.01684
0.01594 0.02340 0.50327 0.50407 0.00375 1.017 1236.175 0.01687
0.01596 0.02344 0.50402 0.50481 0.00563 1.120 1236.205 0.01689
0.01599 0.02347 0.50476 0.50556 0.00751 1.017 1236.235 0.01692
0.01601 0.02351 0.50550 0.50630 0.00938 0.895 1236.265 0.01694
0.01603 0.02354 0.50624 0.50705 0.01126 0.820 1236.295 0.01697
0.01606 0.02357 0.50699 0.50779 0.01313 0.886 1236.325 0.01699
0.01608 0.02361 0.50773 0.50853 0.01501 0.867 1236.355 0.01701
0.01611 0.02364 0.50847 0.50928 0.01689 0.980 1236.384 0.01704
0.01613 0.02368 0.50922 0.51002 0.01876 0.877 1236.414 0.01706
0.01615 0.02371 0.50996 0.51077 0.02064 1.074 1236.444 0.01709
0.01618 0.02375 0.51070 0.51151 0.02252 1.016 1236.474 0.01711
0.01620 0.02378 0.51144 0.51225 0.02440 1.193 1236.504 0.01714
0.01622 0.02382 0.51219 0.51300 0.02627 0.977 1236.534 0.01716
0.01625 0.02385 0.51293 0.51374 0.02815 1.127 1236.564 0.01719
0.01627 0.02389 0.51367 0.51449 0.03003 0.884 1236.594 0.01721
0.01629 0.02392 0.51442 0.51523 0.03190 0.718 1236.623 0.01724
0.01632 0.02395 0.51516 0.51597 0.03378 1.073 1236.653 0.01726
0.01634 0.02399 0.51590 0.51672 0.03566 0.981 1236.683 0.01729
0.01636 0.02402 0.51665 0.51746 0.03754 0.992 1236.713 0.01731
0.01639 0.02406 0.51739 0.51821 0.03941 0.827 1236.743 0.01733
0.01641 0.02409 0.51813 0.51895 0.04129 1.104 1236.773 0.01736
0.01643 0.02413 0.51887 0.51970 0.04317 0.947 1236.803 0.01738
0.01646 0.02416 0.51962 0.52044 0.04505 0.852 1236.833 0.01741
0.01648 0.02420 0.52036 0.52118 0.04692 0.985 1236.862 0.01743
0.01651 0.02423 0.52110 0.52193 0.04880 0.906 1236.892 0.01746
0.01653 0.02427 0.52185 0.52267 0.05068 0.905 1236.922 0.01748
0.01655 0.02430 0.52259 0.52342 0.05256 0.945 1236.952 0.01751
0.01658 0.02433 0.52333 0.52416 0.05444 0.993 1236.982 0.01753
0.01660 0.02437 0.52408 0.52491 0.05631 0.837 1237.012 0.01756
0.01662 0.02440 0.52482 0.52565 0.05819 0.756 1237.042 0.01758
0.01665 0.02444 0.52556 0.52640 0.06007 0.920 1237.072 0.01760
0.01667 0.02447 0.52631 0.52714 0.06195 0.979 1237.101 0.01763
0.01669 0.02451 0.52705 0.52788 0.06383 1.158 1237.131 0.01765
0.01672 0.02454 0.52779 0.52863 0.06571 1.116 1237.161 0.01768
0.01674 0.02458 0.52854 0.52937 0.06758 0.833 1237.191 0.01770
0.01676 0.02461 0.52928 0.53012 0.06946 0.924 1237.221 0.01773
0.01679 0.02465 0.53003 0.53086 0.07134 1.141 1237.251 0.01775
0.01681 0.02468 0.53077 0.53161 0.07322 0.782 1237.281 0.01778
0.01683 0.02472 0.53151 0.53235 0.07510 0.791 1237.311 0.01780
0.01686 0.02475 0.53226 0.53310 0.07698 0.960 1237.341 0.01783
0.01688 0.02478 0.53300 0.53384 0.07886 1.047 1237.370 0.01785
0.01691 0.02482 0.53374 0.53459 0.08074 1.068 1237.400 0.01788
0.01693 0.02485 0.53449 0.53533 0.08261 0.859 1237.430 0.01790
0.01695 0.02489 0.53523 0.53608 0.08449 0.868 1237.460 0.01792
0.01698 0.02492 0.53597 0.53682 0.08637 1.137 1237.490 0.01795
0.01700 0.02496 0.53672 0.53757 0.08825 1.006 1237.520 0.01797
0.01702 0.02499 0.53746 0.53831 0.09013 0.879 1237.550 0.01800
0.01705 0.02503 0.53821 0.53906 0.09201 0.938 1237.580 0.01802
0.01707 0.02506 0.53895 0.53980 0.09389 1.028 1237.609 0.01805
0.01709 0.02510 0.53969 0.54055 0.09577 0.999 1237.639 0.01807
0.01712 0.02513 0.54044 0.54129 0.09765 0.893 1237.669 0.01810
0.01714 0.02516 0.54118 0.54204 0.09953 0.965 1237.699 0.01812
0.01716 0.02520 0.54193 0.54278 0.10141 1.009 1237.729 0.01815
0.01719 0.02523 0.54267 0.54353 0.10329 1.102 1237.759 0.01817
0.01721 0.02527 0.54341 0.54427 0.10517 1.115 1237.789 0.01819
0.01724 0.02530 0.54416 0.54502 0.10705 0.998 1237.819 0.01822
0.01726 0.02534 0.54490 0.54576 0.10893 1.047 1237.848 0.01824
0.01728 0.02537 0.54565 0.54651 0.11081 0.898 1237.878 0.01827
0.01731 0.02541 0.54639 0.54725 0.11269 1.065 1237.908 0.01829
0.01733 0.02544 0.54713 0.54800 0.11457 0.917 1237.938 0.01832
0.01735 0.02548 0.54788 0.54874 0.11645 1.028 1237.968 0.01834
0.01738 0.02551 0.54862 0.54949 0.11833 1.020 1237.998 0.01837
0.01740 0.02555 0.54937 0.55024 0.12021 0.871 1238.028 0.01839
0.01742 0.02558 0.55011 0.55098 0.12209 1.084 1238.058 0.01842
0.01745 0.02561 0.55086 0.55173 0.12397 0.917 1238.087 0.01844
0.01747 0.02565 0.55160 0.55247 0.12585 0.795 1238.117 0.01847
0.01749 0.02568 0.55234 0.55322 0.12773 0.888 1238.147 0.01849
0.01752 0.02572 0.55309 0.55396 0.12961 0.869 1238.177 0.01851
0.01754 0.02575 0.55383 0.55471 0.13149 1.073 1238.207 0.01854
0.01757 0.02579 0.55458 0.55545 0.13338 1.175 1238.237 0.01856
0.01759 0.02582 0.55532 0.55620 0.13526 0.944 1238.267 0.01859
0.01761 0.02586 0.55607 0.55695 0.13714 1.157 1238.297 0.01861
0.01764 0.02589 0.55681 0.55769 0.13902 0.999 1238.327 0.01864
0.01766 0.02593 0.55756 0.55844 0.14090 0.980 1238.356 0.01866
0.01768 0.02596 0.55830 0.55918 0.14278 0.868 1238.386 0.01869
0.01771 0.02600 0.55904 0.55993 0.14466 0.969 1238.416 0.01871
0.01773 0.02603 0.55979 0.56067 0.14654 0.850 1238.446 0.01874
0.01775 0.02606 0.56053 0.56142 0.14843 1.018 1238.476 0.01876
0.01778 0.02610 0.56128 0.56217 0.15031 0.850 1238.506 0.01878
0.01780 0.02613 0.56202 0.56291 0.15219 0.906 1238.536 0.01881
0.01782 0.02617 0.56277 0.56366 0.15407 1.009 1238.566 0.01883
0.01785 0.02620 0.56351 0.56440 0.15595 0.785 1238.595 0.01886
0.01787 0.02624 0.56426 0.56515 0.15783 0.943 1238.625 0.01888
0.01790 0.02627 0.56500 0.56590 0.15972 0.831 1238.655 0.01891
0.01792 0.02631 0.56575 0.56664 0.16160 0.914 1238.685 0.01893
0.01794 0.02634 0.56649 0.56739 0.16348 0.849 1238.715 0.01896
0.01797 0.02638 0.56724 0.56813 0.16536 0.737 1238.745 0.01898
0.01799 0.02641 0.56798 0.56888 0.16724 0.922 1238.775 0.01901
0.01801 0.02645 0.56873 0.56963 0.16913 0.849 1238.805 0.01903
0.01804 0.02648 0.56947 0.57037 0.17101 0.747 1238.834 0.01905
0.01806 0.02651 0.57022 0.57112 0.17289 0.812 1238.864 0.01908
0.01808 0.02655 0.57096 0.57186 0.17477 1.016 1238.894 0.01910
0.01811 0.02658 0.57171 0.57261 0.17665 1.072 1238.924 0.01913
0.01813 0.02662 0.57245 0.57336 0.17854 0.941 1238.954 0.01915
0.01816 0.02665 0.57320 0.57410 0.18042 0.819 1238.984 0.01918
0.01818 0.02669 0.57394 0.57485 0.18230 0.940 1239.014 0.01920
0.01820 0.02672 0.57469 0.57560 0.18419 1.198 1239.044 0.01923
0.01823 0.02676 0.57543 0.57634 0.18607 1.180 1239.073 0.01925
0.01825 0.02679 0.57618 0.57709 0.18795 1.107 1239.103 0.01928
0.01827 0.02683 0.57692 0.57784 0.18983 0.930 1239.133 0.01930
0.01830 0.02686 0.57767 0.57858 0.19172 0.921 1239.163 0.01933
0.01832 0.02690 0.57841 0.57933 0.19360 1.078 1239.193 0.01935
0.01834 0.02693 0.57916 0.58007 0.19548 1.087 1239.223 0.01937
0.01837 0.02697 0.57990 0.58082 0.19737 1.050 1239.253 0.01940
0.01839 0.02700 0.58065 0.58157 0.19925 1.170 1239.283 0.01942
0.01841 0.02703 0.58140 0.58231 0.20113 0.884 1239.313 0.01945
0.01844 0.02707 0.58214 0.58306 0.20302 1.050 1239.342 0.01947
0.01846 0.02710 0.58289 0.58381 0.20490 0.976 1239.372 0.01950
0.01849 0.02714 0.58363 0.58455 0.20678 0.707 1239.402 0.01952
0.01851 0.02717 0.58438 0.58530 0.20867 1.040 1239.432 0.01955
0.01853 0.02721 0.58512 0.58605 0.21055 0.938 1239.462 0.01957
0.01856 0.02724 0.58587 0.58679 0.21243 0.874 1239.492 0.01960
0.01858 0.02728 0.58661 0.58754 0.21432 0.986 1239.522 0.01962
0.01860 0.02731 0.58736 0.58829 0.21620 1.207 1239.552 0.01964
0.01863 0.02735 0.58810 0.58904 0.21809 1.078 1239.581 0.01967
0.01865 0.02738 0.58885 0.58978 0.21997 0.976 1239.611 0.01969
0.01867 0.02742 0.58960 0.59053 0.22185 0.930 1239.641 0.01972
0.01870 0.02745 0.59034 0.59128 0.22374 1.088 1239.671 0.01974
0.01872 0.02749 0.59109 0.59202 0.22562 0.985 1239.701 0.01977
0.01875 0.02752 0.59183 0.59277 0.22751 0.939 1239.731 0.01979
0.01877 0.02755 0.59258 0.59352 0.22939 0.799 1239.761 0.01982
0.01879 0.02759 0.59333 0.59426 0.23128 0.733 1239.791 0.01984
0.01882 0.02762 0.59407 0.59501 0.23316 1.039 1239.820 0.01987
0.01884 0.02766 0.59482 0.59576 0.23504 0.951 1239.850 0.01989
0.01886 0.02769 0.59556 0.59650 0.23693 0.873 1239.880 0.01992
0.01889 0.02773 0.59631 0.59725 0.23881 1.150 1239.910 0.01994
0.01891 0.02776 0.59705 0.59800 0.24070 1.008 1239.940 0.01996
0.01893 0.02780 0.59780 0.59875 0.24258 0.818 1239.970 0.01999
0.01896 0.02783 0.59855 0.59949 0.24447 1.001 1240.000 0.02001
0.01898 0.02787 0.59929 0.60024 0.24635 1.077 1240.030 0.02004
0.01901 0.02790 0.60004 0.60099 0.24824 0.961 1240.059 0.02006
0.01903 0.02794 0.60079 0.60174 0.25012 1.035 1240.089 0.02009
0.01905 0.02797 0.60153 0.60248 0.25201 0.798 1240.119 0.02011
0.01908 0.02801 0.60228 0.60323 0.25389 0.889 1240.149 0.02014
0.01910 0.02804 0.60302 0.60398 0.25578 0.972 1240.179 0.02016
0.01912 0.02807 0.60377 0.60472 0.25766 0.945 1240.209 0.02019
0.01915 0.02811 0.60452 0.60547 0.25955 0.869 1240.239 0.02021
0.01917 0.02814 0.60526 0.60622 0.26144 1.012 1240.269 0.02023
0.01919 0.02818 0.60601 0.60697 0.26332 0.960 1240.299 0.02026
0.01922 0.02821 0.60675 0.60771 0.26521 0.905 1240.328 0.02028
0.01924 0.02825 0.60750 0.60846 0.26709 0.930 1240.358 0.02031
0.01927 0.02828 0.60825 0.60921 0.26898 0.896 1240.388 0.02033
0.01929 0.02832 0.60899 0.60996 0.27086 1.074 1240.418 0.02036
0.01931 0.02835 0.60974 0.61070 0.27275 0.802 1240.448 0.02038
0.01934 0.02839 0.61049 0.61145 0.27464 0.943 1240.478 0.02041
0.01936 0.02842 0.61123 0.61220 0.27652 1.001 1240.508 0.02043
0.01938 0.02846 0.61198 0.61295 0.27841 1.024 1240.538 0.02046
0.01941 0.02849 0.61273 0.61370 0.28029 0.997 1240.567 0.02048
0.01943 0.02853 0.61347 0.61444 0.28218 0.966 1240.597 0.02050
0.01945 0.02856 0.61422 0.61519 0.28407 1.063 1240.627 0.02053
0.01948 0.02860 0.61497 0.61594 0.28595 1.032 1240.657 0.02055
0.01950 0.02863 0.61571 0.61669 0.28784 0.876 1240.687 0.02058
0.01953 0.02867 0.61646 0.61743 0.28973 0.688 1240.717 0.02060
0.01955 0.02870 0.61721 0.61818 0.29161 0.984 1240.747 0.02063
0.01957 0.02873 0.61795 0.61893 0.29350 1.094 1240.777 0.02065
0.01960 0.02877 0.61870 0.61968 0.29539 0.991 1240.806 0.02068
0.01962 0.02880 0.61945 0.62043 0.29727 1.037 1240.836 0.02070
0.01964 0.02884 0.62019 0.62117 0.29916 1.060 1240.866 0.02073
0.01967 0.02887 0.62094 0.62192 0.30105 1.205 1240.896 0.02075
0.01969 0.02891 0.62169 0.62267 0.30293 0.850 1240.926 0.02078
0.01971 0.02894 0.62243 0.62342 0.30482 1.077 1240.956 0.02080
0.01974 0.02898 0.62318 0.62417 0.30671 1.068 1240.986 0.02082
0.01976 0.02901 0.62393 0.62491 0.30859 1.202 1241.016 0.02085
0.01979 0.02905 0.62467 0.62566 0.31048 1.040 1241.045 0.02087
0.01981 0.02908 0.62542 0.62641 0.31237 0.917 1241.075 0.02090
0.01983 0.02912 0.62617 0.62716 0.31426 0.961 1241.105 0.02092
0.01986 0.02915 0.62692 0.62791 0.31614 1.005 1241.135 0.02095
0.01988 0.02919 0.62766 0.62866 0.31803 0.971 1241.165 0.02097
0.01990 0.02922 0.62841 0.62940 0.31992 0.797 1241.195 0.02100
0.01993 0.02926 0.62916 0.63015 0.32181 0.918 1241.225 0.02102
0.01995 0.02929 0.62990 0.63090 0.32369 0.974 1241.255 0.02105
0.01997 0.02932 0.63065 0.63165 0.32558 1.007 1241.285 0.02107
0.02000 0.02936 0.63140 0.63240 0.32747 0.969 1241.314 0.02109
0.02002 0.02939 0.63215 0.63315 0.32936 0.951 1241.344 0.02112
0.02005 0.02943 0.63289 0.63389 0.33125 1.181 1241.374 0.02114
0.02007 0.02946 0.63364 0.63464 0.33313 0.900 1241.404 0.02117
0.02009 0.02950 0.63439 0.63539 0.33502 0.862 1241.434 0.02119
0.02012 0.02953 0.63513 0.63614 0.33691 0.828 1241.464 0.02122
0.02014 0.02957 0.63588 0.63689 0.33880 1.143 1241.494 0.02124
0.02016 0.02960 0.63663 0.63764 0.34069 0.857 1241.524 0.02127
0.02019 0.02964 0.63738 0.63838 0.34258 0.924 1241.553 0.02129
0.02021 0.02967 0.63812 0.63913 0.34446 0.908 1241.583 0.02132
0.02024 0.02971 0.63887 0.63988 0.34635 0.929 1241.613 0.02134
0.02026 0.02974 0.63962 0.64063 0.34824 0.956 1241.643 0.02137
0.02028 0.02978 0.64037 0.64138 0.35013 1.019 1241.673 0.02139
0.02031 0.02981 0.64111 0.64213 0.35202 0.992 1241.703 0.02141
0.02033 0.02985 0.64186 0.64288 0.35391 1.092 1241.733 0.02144
0.02035 0.02988 0.64261 0.64363 0.35580 0.927 1241.763 0.02146
0.02038 0.02992 0.64336 0.64437 0.35769 0.936 1241.792 0.02149
0.02040 0.02995 0.64410 0.64512 0.35957 0.800 1241.822 0.02151
0.02042 0.02999 0.64485 0.64587 0.36146 1.018 1241.852 0.02154
0.02045 0.03002 0.64560 0.64662 0.36335 0.934 1241.882 0.02156
0.02047 0.03005 0.64635 0.64737 0.36524 0.907 1241.912 0.02159
0.02050 0.03009 0.64710 0.64812 0.36713 1.079 1241.942 0.02161
0.02052 0.03012 0.64784 0.64887 0.36902 1.099 1241.972 0.02164
0.02054 0.03016 0.64859 0.64962 0.37091 0.981 1242.002 0.02166
0.02057 0.03019 0.64934 0.65037 0.37280 1.142 1242.031 0.02168
0.02059 0.03023 0.65009 0.65111 0.37469 1.125 1242.061 0.02171
0.02061 0.03026 0.65083 0.65186 0.37658 1.048 1242.091 0.02173
0.02064 0.03030 0.65158 0.65261 0.37847 1.006 1242.121 0.02176
0.02066 0.03033 0.65233 0.65336 0.38036 1.084 1242.151 0.02178
0.02069 0.03037 0.65308 0.65411 0.38225 0.858 1242.181 0.02181
0.02071 0.03040 0.65383 0.65486 0.38414 1.022 1242.211 0.02183
0.02073 0.03044 0.65457 0.65561 0.38603 1.016 1242.241 0.02186
0.02076 0.03047 0.65532 0.65636 0.38792 0.915 1242.271 0.02188
0.02078 0.03051 0.65607 0.65711 0.38981 0.928 1242.300 0.02191
0.02080 0.03054 0.65682 0.65786 0.39170 0.967 1242.330 0.02193
0.02083 0.03058 0.65757 0.65861 0.39359 1.048 1242.360 0.02196
0.02085 0.03061 0.65831 0.65936 0.39548 0.983 1242.390 0.02198
0.02087 0.03065 0.65906 0.66011 0.39737 0.905 1242.420 0.02200
0.02090 0.03068 0.65981 0.66085 0.39926 1.030 1242.450 0.02203
0.02092 0.03072 0.66056 0.66160 0.40115 0.986 1242.480 0.02205
0.02095 0.03075 0.66131 0.66235 0.40304 1.004 1242.510 0.02208
0.02097 0.03079 0.66206 0.66310 0.40493 0.948 1242.539 0.02210
0.02099 0.03082 0.66280 0.66385 0.40682 0.975 1242.569 0.02213
0.02102 0.03085 0.66355 0.66460 0.40871 1.065 1242.599 0.02215
0.02104 0.03089 0.66430 0.66535 0.41060 1.010 1242.629 0.02218
0.02106 0.03092 0.66505 0.66610 0.41249 0.981 1242.659 0.02220
0.02109 0.03096 0.66580 0.66685 0.41438 0.955 1242.689 0.02223
0.02111 0.03099 0.66655 0.66760 0.41628 1.088 1242.719 0.02225
0.02114 0.03103 0.66729 0.66835 0.41817 0.936 1242.749 0.02227
0.02116 0.03106 0.66804 0.66910 0.42006 0.809 1242.778 0.02230
0.02118 0.03110 0.66879 0.66985 0.42195 0.782 1242.808 0.02232
0.02121 0.03113 0.66954 0.67060 0.42384 0.953 1242.838 0.02235
0.02123 0.03117 0.67029 0.67135 0.42573 0.963 1242.868 0.02237
0.02125 0.03120 0.67104 0.67210 0.42762 1.188 1242.898 0.02240
0.02128 0.03124 0.67179 0.67285 0.42951 0.944 1242.928 0.02242
0.02130 0.03127 0.67253 0.67360 0.43141 0.862 1242.958 0.02245
0.02133 0.03131 0.67328 0.67435 0.43330 1.007 1242.988 0.02247
0.02135 0.03134 0.67403 0.67510 0.43519 0.995 1243.017 0.02250
0.02137 0.03138 0.67478 0.67585 0.43708 0.969 1243.047 0.02252
0.02140 0.03141 0.67553 0.67660 0.43897 0.915 1243.077 0.02254
0.02142 0.03145 0.67628 0.67735 0.44087 1.024 1243.107 0.02257
0.02144 0.03148 0.67703 0.67810 0.44276 1.087 1243.137 0.02259
0.02147 0.03152 0.67778 0.67885 0.44465 0.907 1243.167 0.02262
0.02149 0.03155 0.67853 0.67960 0.44654 1.060 1243.197 0.02264
0.02151 0.03159 0.67927 0.68035 0.44843 0.861 1243.227 0.02267
0.02154 0.03162 0.68002 0.68110 0.45033 1.058 1243.257 0.02269
0.02156 0.03166 0.68077 0.68185 0.45222 0.850 1243.286 0.02272
0.02159 0.03169 0.68152 0.68260 0.45411 0.886 1243.316 0.02274
0.02161 0.03173 0.68227 0.68335 0.45600 1.121 1243.346 0.02277
0.02163 0.03176 0.68302 0.68410 0.45790 0.996 1243.376 0.02279
0.02166 0.03179 0.68377 0.68485 0.45979 0.966 1243.406 0.02282
0.02168 0.03183 0.68452 0.68560 0.46168 0.986 1243.436 0.02284
0.02170 0.03186 0.68527 0.68635 0.46357 0.994 1243.466 0.02286
0.02173 0.03190 0.68602 0.68710 0.46547 0.940 1243.496 0.02289
0.02175 0.03193 0.68676 0.68785 0.46736 1.019 1243.525 0.02291
0.02178 0.03197 0.68751 0.68860 0.46925 1.057 1243.555 0.02294
0.02180 0.03200 0.68826 0.68935 0.47114 1.119 1243.585 0.02296
0.02182 0.03204 0.68901 0.69010 0.47304 1.065 1243.615 0.02299
0.02185 0.03207 0.68976 0.69085 0.47493 1.029 1243.645 0.02301
0.02187 0.03211 0.69051 0.69160 0.47682 0.996 1243.675 0.02304
0.02189 0.03214 0.69126 0.69235 0.47872 1.056 1243.705 0.02306
0.02192 0.03218 0.69201 0.69310 0.48061 0.837 1243.735 0.02309
0.02194 0.03221 0.69276 0.69385 0.48250 0.848 1243.764 0.02311
0.02197 0.03225 0.69351 0.69461 0.48440 0.974 1243.794 0.02313
0.02199 0.03228 0.69426 0.69536 0.48629 1.003 1243.824 0.02316
0.02201 0.03232 0.69501 0.69611 0.48818 0.975 1243.854 0.02318
0.02204 0.03235 0.69576 0.69686 0.49008 1.094 1243.884 0.02321
0.02206 0.03239 0.69651 0.69761 0.49197 0.904 1243.914 0.02323
0.02208 0.03242 0.69726 0.69836 0.49387 1.064 1243.944 0.02326
0.02211 0.03246 0.69801 0.69911 0.49576 1.035 1243.974 0.02328
0.02213 0.03249 0.69875 0.69986 0.49765 1.174 1244.003 0.02331
0.02216 0.03253 0.69950 0.70061 0.49955 0.816 1244.033 0.02333
0.02218 0.03256 0.70025 0.70136 0.50144 0.951 1244.063 0.02336
0.02220 0.03260 0.70100 0.70211 0.50334 0.957 1244.093 0.02338
0.02223 0.03263 0.70175 0.70286 0.50523 0.995 1244.123 0.02341
0.02225 0.03267 0.70250 0.70361 0.50712 0.930 1244.153 0.02343
0.02227 0.03270 0.70325 0.70437 0.50902 0.825 1244.183 0.02345
0.02230 0.03274 0.70400 0.70512 0.51091 0.958 1244.213 0.02348
0.02232 0.03277 0.70475 0.70587 0.51281 0.943 1244.243 0.02350
0.02235 0.03281 0.70550 0.70662 0.51470 0.995 1244.272 0.02353
0.02237 0.03284 0.70625 0.70737 0.51660 0.861 1244.302 0.02355
0.02239 0.03288 0.70700 0.70812 0.51849 0.941 1244.332 0.02358
0.02242 0.03291 0.70775 0.70887 0.52039 1.092 1244.362 0.02360
0.02244 0.03294 0.70850 0.70962 0.52228 0.941 1244.392 0.02363
0.02246 0.03298 0.70925 0.71037 0.52418 0.895 1244.422 0.02365
0.02249 0.03301 0.71000 0.71112 0.52607 0.983 1244.452 0.02368
0.02251 0.03305 0.71075 0.71188 0.52797 0.929 1244.482 0.02370
0.02254 0.03308 0.71150 0.71263 0.52986 0.903 1244.511 0.02372
0.02256 0.03312 0.71225 0.71338 0.53176 1.072 1244.541 0.02375
0.02258 0.03315 0.71300 0.71413 0.53365 1.125 1244.571 0.02377
0.02261 0.03319 0.71375 0.71488 0.53555 1.044 1244.601 0.02380
0.02263 0.03322 0.71450 0.71563 0.53744 1.044 1244.631 0.02382
0.02265 0.03326 0.71525 0.71638 0.53934 1.036 1244.661 0.02385
0.02268 0.03329 0.71600 0.71714 0.54123 1.060 1244.691 0.02387
0.02270 0.03333 0.71675 0.71789 0.54313 0.801 1244.721 0.02390
0.02273 0.03336 0.71750 0.71864 0.54502 0.979 1244.750 0.02392
0.02275 0.03340 0.71825 0.71939 0.54692 0.961 1244.780 0.02395
0.02277 0.03343 0.71900 0.72014 0.54882 1.014 1244.810 0.02397
0.02280 0.03347 0.71975 0.72089 0.55071 1.068 1244.840 0.02400
0.02282 0.03350 0.72050 0.72164 0.55261 1.130 1244.870 0.02402
0.02284 0.03354 0.72126 0.72240 0.55450 1.138 1244.900 0.02404
0.02287 0.03357 0.72201 0.72315 0.55640 0.987 1244.930 0.02407
0.02289 0.03361 0.72276 0.72390 0.55829 1.052 1244.960 0.02409
0.02292 0.03364 0.72351 0.72465 0.56019 1.098 1244.989 0.02412
0.02294 0.03368 0.72426 0.72540 0.56209 0.903 1245.019 0.02414
0.02296 0.03371 0.72501 0.72615 0.56398 0.984 1245.049 0.02417
0.02299 0.03375 0.72576 0.72691 0.56588 1.014 1245.079 0.02419
0.02301 0.03378 0.72651 0.72766 0.56778 0.969 1245.109 0.02422
0.02303 0.03382 0.72726 0.72841 0.56967 1.022 1245.139 0.02424
0.02306 0.03385 0.72801 0.72916 0.57157 0.981 1245.169 0.02427
0.02308 0.03389 0.72876 0.72991 0.57347 1.086 1245.199 0.02429
0.02311 0.03392 0.72951 0.73066 0.57536 0.991 1245.229 0.02431
0.02313 0.03396 0.73026 0.73142 0.57726 0.992 1245.258 0.02434
0.02315 0.03399 0.73101 0.73217 0.57916 1.081 1245.288 0.02436
0.02318 0.03403 0.73176 0.73292 0.58105 0.937 1245.318 0.02439
0.02320 0.03406 0.73251 0.73367 0.58295 0.907 1245.348 0.02441
0.02323 0.03410 0.73327 0.73442 0.58485 1.031 1245.378 0.02444
0.02325 0.03413 0.73402 0.73518 0.58674 1.000 1245.408 0.02446
0.02327 0.03417 0.73477 0.73593 0.58864 1.012 1245.438 0.02449
0.02330 0.03420 0.73552 0.73668 0.59054 0.901 1245.468 0.02451
0.02332 0.03424 0.73627 0.73743 0.59244 1.030 1245.497 0.02454
0.02334 0.03427 0.73702 0.73819 0.59433 1.146 1245.527 0.02456
