x y z dist_scaled dist_frac flux_norm wavelength redshift
0.02273 0.01453 0.50186 0.50258 0.00000 0.970 1236.115 0.01682
0.02276 0.01455 0.50260 0.50333 0.00188 1.221 1236.145 0.01684
0.02280 0.01457 0.50334 0.50407 0.00375 1.083 1236.175 0.01687
0.02283 0.01459 0.50409 0.50481 0.00563 0.991 1236.205 0.01689
0.02286 0.01461 0.50483 0.50556 0.00751 1.310 1236.235 0.01692
0.02290 0.01463 0.50557 0.50630 0.00938 1.081 1236.265 0.01694
0.02293 0.01465 0.50631 0.50705 0.01126 1.103 1236.295 0.01697
0.02297 0.01468 0.50706 0.50779 0.01313 0.899 1236.325 0.01699
0.02300 0.01470 0.50780 0.50853 0.01501 1.103 1236.355 0.01701
0.02303 0.01472 0.50854 0.50928 0.01689 1.033 1236.384 0.01704
0.02307 0.01474 0.50929 0.51002 0.01876 0.920 1236.414 0.01706
0.02310 0.01476 0.51003 0.51077 0.02064 1.033 1236.444 0.01709
0.02313 0.01478 0.51077 0.51151 0.02252 0.987 1236.474 0.01711
0.02317 0.01480 0.51151 0.51225 0.02440 1.462 1236.504 0.01714
0.02320 0.01483 0.51226 0.51300 0.02627 1.279 1236.534 0.01716
0.02323 0.01485 0.51300 0.51374 0.02815 1.256 1236.564 0.01719
0.02327 0.01487 0.51374 0.51449 0.03003 1.413 1236.594 0.01721
0.02330 0.01489 0.51449 0.51523 0.03190 0.984 1236.623 0.01724
0.02334 0.01491 0.51523 0.51597 0.03378 1.255 1236.653 0.01726
0.02337 0.01493 0.51597 0.51672 0.03566 1.073 1236.683 0.01729
0.02340 0.01496 0.51672 0.51746 0.03754 1.162 1236.713 0.01731
0.02344 0.01498 0.51746 0.51821 0.03941 0.913 1236.743 0.01733
0.02347 0.01500 0.51820 0.51895 0.04129 1.002 1236.773 0.01736
0.02350 0.01502 0.51895 0.51970 0.04317 1.091 1236.803 0.01738
0.02354 0.01504 0.51969 0.52044 0.04505 1.136 1236.833 0.01741
0.02357 0.01506 0.52043 0.52118 0.04692 0.799 1236.862 0.01743
0.02361 0.01508 0.52118 0.52193 0.04880 0.932 1236.892 0.01746
0.02364 0.01511 0.52192 0.52267 0.05068 1.111 1236.922 0.01748
0.02367 0.01513 0.52266 0.52342 0.05256 0.819 1236.952 0.01751
0.02371 0.01515 0.52341 0.52416 0.05444 1.154 1236.982 0.01753
0.02374 0.01517 0.52415 0.52491 0.05631 1.041 1237.012 0.01756
0.02377 0.01519 0.52489 0.52565 0.05819 1.063 1237.042 0.01758
0.02381 0.01521 0.52564 0.52640 0.06007 0.927 1237.072 0.01760
0.02384 0.01524 0.52638 0.52714 0.06195 0.792 1237.101 0.01763
0.02387 0.01526 0.52712 0.52788 0.06383 1.060 1237.131 0.01765
0.02391 0.01528 0.52787 0.52863 0.06571 0.925 1237.161 0.01768
0.02394 0.01530 0.52861 0.52937 0.06758 1.192 1237.191 0.01770
0.02398 0.01532 0.52935 0.53012 0.06946 0.946 1237.221 0.01773
0.02401 0.01534 0.53010 0.53086 0.07134 0.723 1237.251 0.01775
0.02404 0.01536 0.53084 0.53161 0.07322 0.856 1237.281 0.01778
0.02408 0.01539 0.53159 0.53235 0.07510 1.033 1237.311 0.01780
0.02411 0.01541 0.53233 0.53310 0.07698 0.899 1237.341 0.01783
0.02414 0.01543 0.53307 0.53384 0.07886 0.853 1237.370 0.01785
0.02418 0.01545 0.53382 0.53459 0.08074 0.941 1237.400 0.01788
0.02421 0.01547 0.53456 0.53533 0.08261 1.163 1237.430 0.01790
0.02425 0.01549 0.53530 0.53608 0.08449 0.940 1237.460 0.01792
0.02428 0.01552 0.53605 0.53682 0.08637 1.028 1237.490 0.01795
0.02431 0.01554 0.53679 0.53757 0.08825 0.983 1237.520 0.01797
0.02435 0.01556 0.53754 0.53831 0.09013 0.894 1237.550 0.01800
0.02438 0.01558 0.53828 0.53906 0.09201 0.893 1237.580 0.01802
0.02441 0.01560 0.53902 0.53980 0.09389 0.782 1237.609 0.01805
0.02445 0.01562 0.53977 0.54055 0.09577 0.980 1237.639 0.01807
0.02448 0.01564 0.54051 0.54129 0.09765 0.824 1237.669 0.01810
0.02451 0.01567 0.54126 0.54204 0.09953 0.868 1237.699 0.01812
0.02455 0.01569 0.54200 0.54278 0.10141 0.845 1237.729 0.01815
0.02458 0.01571 0.54274 0.54353 0.10329 0.999 1237.759 0.01817
0.02462 0.01573 0.54349 0.54427 0.10517 0.867 1237.789 0.01819
0.02465 0.01575 0.54423 0.54502 0.10705 0.998 1237.819 0.01822
0.02468 0.01577 0.54498 0.54576 0.10893 0.778 1237.848 0.01824
0.02472 0.01579 0.54572 0.54651 0.11081 1.063 1237.878 0.01827
0.02475 0.01582 0.54647 0.54725 0.11269 1.217 1237.908 0.01829
0.02478 0.01584 0.54721 0.54800 0.11457 0.953 1237.938 0.01832
0.02482 0.01586 0.54795 0.54874 0.11645 0.975 1237.968 0.01834
0.02485 0.01588 0.54870 0.54949 0.11833 1.084 1237.998 0.01837
0.02489 0.01590 0.54944 0.55024 0.12021 1.281 1238.028 0.01839
0.02492 0.01592 0.55019 0.55098 0.12209 0.843 1238.058 0.01842
0.02495 0.01595 0.55093 0.55173 0.12397 1.170 1238.087 0.01844
0.02499 0.01597 0.55168 0.55247 0.12585 1.015 1238.117 0.01847
0.02502 0.01599 0.55242 0.55322 0.12773 0.927 1238.147 0.01849
0.02505 0.01601 0.55316 0.55396 0.12961 0.992 1238.177 0.01851
0.02509 0.01603 0.55391 0.55471 0.13149 1.100 1238.207 0.01854
0.02512 0.01605 0.55465 0.55545 0.13338 0.904 1238.237 0.01856
0.02516 0.01608 0.55540 0.55620 0.13526 1.077 1238.267 0.01859
0.02519 0.01610 0.55614 0.55695 0.13714 0.837 1238.297 0.01861
0.02522 0.01612 0.55689 0.55769 0.13902 1.098 1238.327 0.01864
0.02526 0.01614 0.55763 0.55844 0.14090 0.990 1238.356 0.01866
0.02529 0.01616 0.55838 0.55918 0.14278 1.120 1238.386 0.01869
0.02532 0.01618 0.55912 0.55993 0.14466 1.011 1238.416 0.01871
0.02536 0.01620 0.55987 0.56067 0.14654 1.183 1238.446 0.01874
0.02539 0.01623 0.56061 0.56142 0.14843 1.226 1238.476 0.01876
0.02542 0.01625 0.56136 0.56217 0.15031 0.813 1238.506 0.01878
0.02546 0.01627 0.56210 0.56291 0.15219 0.791 1238.536 0.01881
0.02549 0.01629 0.56285 0.56366 0.15407 1.029 1238.566 0.01883
0.02553 0.01631 0.56359 0.56440 0.15595 1.050 1238.595 0.01886
0.02556 0.01633 0.56434 0.56515 0.15783 1.180 1238.625 0.01888
0.02559 0.01636 0.56508 0.56590 0.15972 1.461 1238.655 0.01891
0.02563 0.01638 0.56583 0.56664 0.16160 1.028 1238.685 0.01893
0.02566 0.01640 0.56657 0.56739 0.16348 0.790 1238.715 0.01896
0.02569 0.01642 0.56732 0.56813 0.16536 0.833 1238.745 0.01898
0.02573 0.01644 0.56806 0.56888 0.16724 0.963 1238.775 0.01901
0.02576 0.01646 0.56881 0.56963 0.16913 0.661 1238.805 0.01903
0.02580 0.01648 0.56955 0.57037 0.17101 0.811 1238.834 0.01905
0.02583 0.01651 0.57030 0.57112 0.17289 0.939 1238.864 0.01908
0.02586 0.01653 0.57104 0.57186 0.17477 0.852 1238.894 0.01910
0.02590 0.01655 0.57179 0.57261 0.17665 0.980 1238.924 0.01913
0.02593 0.01657 0.57253 0.57336 0.17854 0.958 1238.954 0.01915
0.02596 0.01659 0.57328 0.57410 0.18042 0.893 1238.984 0.01918
0.02600 0.01661 0.57402 0.57485 0.18230 1.107 1239.014 0.01920
0.02603 0.01664 0.57477 0.57560 0.18419 0.977 1239.044 0.01923
0.02607 0.01666 0.57551 0.57634 0.18607 0.998 1239.073 0.01925
0.02610 0.01668 0.57626 0.57709 0.18795 1.233 1239.103 0.01928
0.02613 0.01670 0.57700 0.57784 0.18983 0.826 1239.133 0.01930
0.02617 0.01672 0.57775 0.57858 0.19172 0.847 1239.163 0.01933
0.02620 0.01674 0.57849 0.57933 0.19360 1.211 1239.193 0.01935
0.02623 0.01677 0.57924 0.58007 0.19548 0.910 1239.223 0.01937
0.02627 0.01679 0.57998 0.58082 0.19737 0.995 1239.253 0.01940
0.02630 0.01681 0.58073 0.58157 0.19925 0.824 1239.283 0.01942
0.02634 0.01683 0.58148 0.58231 0.20113 0.844 1239.313 0.01945
0.02637 0.01685 0.58222 0.58306 0.20302 0.951 1239.342 0.01947
0.02640 0.01687 0.58297 0.58381 0.20490 0.502 1239.372 0.01950
0.02644 0.01689 0.58371 0.58455 0.20678 0.588 1239.402 0.01952
0.02647 0.01692 0.58446 0.58530 0.20867 0.736 1239.432 0.01955
0.02651 0.01694 0.58520 0.58605 0.21055 1.205 1239.462 0.01957
0.02654 0.01696 0.58595 0.58679 0.21243 0.864 1239.492 0.01960
0.02657 0.01698 0.58669 0.58754 0.21432 0.927 1239.522 0.01962
0.02661 0.01700 0.58744 0.58829 0.21620 1.097 1239.552 0.01964
0.02664 0.01702 0.58819 0.58904 0.21809 0.990 1239.581 0.01967
0.02667 0.01705 0.58893 0.58978 0.21997 1.074 1239.611 0.01969
0.02671 0.01707 0.58968 0.59053 0.22185 1.201 1239.641 0.01972
0.02674 0.01709 0.59042 0.59128 0.22374 0.882 1239.671 0.01974
0.02678 0.01711 0.59117 0.59202 0.22562 0.945 1239.701 0.01977
0.02681 0.01713 0.59192 0.59277 0.22751 0.732 1239.731 0.01979
0.02684 0.01715 0.59266 0.59352 0.22939 0.796 1239.761 0.01982
0.02688 0.01718 0.59341 0.59426 0.23128 0.880 1239.791 0.01984
0.02691 0.01720 0.59415 0.59501 0.23316 0.964 1239.820 0.01987
0.02694 0.01722 0.59490 0.59576 0.23504 0.985 1239.850 0.01989
0.02698 0.01724 0.59564 0.59650 0.23693 0.879 1239.880 0.01992
0.02701 0.01726 0.59639 0.59725 0.23881 1.090 1239.910 0.01994
0.02705 0.01728 0.59714 0.59800 0.24070 1.004 1239.940 0.01996
0.02708 0.01730 0.59788 0.59875 0.24258 1.194 1239.970 0.01999
0.02711 0.01733 0.59863 0.59949 0.24447 0.919 1240.000 0.02001
0.02715 0.01735 0.59938 0.60024 0.24635 1.045 1240.030 0.02004
0.02718 0.01737 0.60012 0.60099 0.24824 0.960 1240.059 0.02006
0.02721 0.01739 0.60087 0.60174 0.25012 0.918 1240.089 0.02009
0.02725 0.01741 0.60161 0.60248 0.25201 1.065 1240.119 0.02011
0.02728 0.01743 0.60236 0.60323 0.25389 1.064 1240.149 0.02014
0.02732 0.01746 0.60311 0.60398 0.25578 0.896 1240.179 0.02016
0.02735 0.01748 0.60385 0.60472 0.25766 1.063 1240.209 0.02019
0.02738 0.01750 0.60460 0.60547 0.25955 1.042 1240.239 0.02021
0.02742 0.01752 0.60535 0.60622 0.26144 1.021 1240.269 0.02023
0.02745 0.01754 0.60609 0.60697 0.26332 0.978 1240.299 0.02026
0.02748 0.01756 0.60684 0.60771 0.26521 1.020 1240.328 0.02028
0.02752 0.01759 0.60758 0.60846 0.26709 1.081 1240.358 0.02031
0.02755 0.01761 0.60833 0.60921 0.26898 0.829 1240.388 0.02033
0.02759 0.01763 0.60908 0.60996 0.27086 1.038 1240.418 0.02036
0.02762 0.01765 0.60982 0.61070 0.27275 0.745 1240.448 0.02038
0.02765 0.01767 0.61057 0.61145 0.27464 1.100 1240.478 0.02041
0.02769 0.01769 0.61132 0.61220 0.27652 1.203 1240.508 0.02043
0.02772 0.01772 0.61206 0.61295 0.27841 1.119 1240.538 0.02046
0.02776 0.01774 0.61281 0.61370 0.28029 0.638 1240.567 0.02048
0.02779 0.01776 0.61356 0.61444 0.28218 1.243 1240.597 0.02050
0.02782 0.01778 0.61430 0.61519 0.28407 1.074 1240.627 0.02053
0.02786 0.01780 0.61505 0.61594 0.28595 0.929 1240.657 0.02055
0.02789 0.01782 0.61580 0.61669 0.28784 1.324 1240.687 0.02058
0.02792 0.01784 0.61654 0.61743 0.28973 0.823 1240.717 0.02060
0.02796 0.01787 0.61729 0.61818 0.29161 1.072 1240.747 0.02063
0.02799 0.01789 0.61804 0.61893 0.29350 1.072 1240.777 0.02065
0.02803 0.01791 0.61878 0.61968 0.29539 1.009 1240.806 0.02068
0.02806 0.01793 0.61953 0.62043 0.29727 0.842 1240.836 0.02070
0.02809 0.01795 0.62028 0.62117 0.29916 0.675 1240.866 0.02073
0.02813 0.01797 0.62103 0.62192 0.30105 0.779 1240.896 0.02075
0.02816 0.01800 0.62177 0.62267 0.30293 0.820 1240.926 0.02078
0.02820 0.01802 0.62252 0.62342 0.30482 0.799 1240.956 0.02080
0.02823 0.01804 0.62327 0.62417 0.30671 0.736 1240.986 0.02082
0.02826 0.01806 0.62401 0.62491 0.30859 0.611 1241.016 0.02085
0.02830 0.01808 0.62476 0.62566 0.31048 0.756 1241.045 0.02087
0.02833 0.01810 0.62551 0.62641 0.31237 0.735 1241.075 0.02090
0.02836 0.01813 0.62625 0.62716 0.31426 0.548 1241.105 0.02092
0.02840 0.01815 0.62700 0.62791 0.31614 0.527 1241.135 0.02095
0.02843 0.01817 0.62775 0.62866 0.31803 0.486 1241.165 0.02097
0.02847 0.01819 0.62850 0.62940 0.31992 0.816 1241.195 0.02100
0.02850 0.01821 0.62924 0.63015 0.32181 0.733 1241.225 0.02102
0.02853 0.01823 0.62999 0.63090 0.32369 0.630 1241.255 0.02105
0.02857 0.01826 0.63074 0.63165 0.32558 0.713 1241.285 0.02107
0.02860 0.01828 0.63149 0.63240 0.32747 1.145 1241.314 0.02109
0.02864 0.01830 0.63223 0.63315 0.32936 0.959 1241.344 0.02112
0.02867 0.01832 0.63298 0.63389 0.33125 1.040 1241.374 0.02114
0.02870 0.01834 0.63373 0.63464 0.33313 0.999 1241.404 0.02117
0.02874 0.01836 0.63447 0.63539 0.33502 0.834 1241.434 0.02119
0.02877 0.01839 0.63522 0.63614 0.33691 1.101 1241.464 0.02122
0.02880 0.01841 0.63597 0.63689 0.33880 0.710 1241.494 0.02124
0.02884 0.01843 0.63672 0.63764 0.34069 1.100 1241.524 0.02127
0.02887 0.01845 0.63746 0.63838 0.34258 0.792 1241.553 0.02129
0.02891 0.01847 0.63821 0.63913 0.34446 1.099 1241.583 0.02132
0.02894 0.01849 0.63896 0.63988 0.34635 1.094 1241.613 0.02134
0.02897 0.01852 0.63971 0.64063 0.34824 1.214 1241.643 0.02137
0.02901 0.01854 0.64045 0.64138 0.35013 0.916 1241.673 0.02139
0.02904 0.01856 0.64120 0.64213 0.35202 0.790 1241.703 0.02141
0.02908 0.01858 0.64195 0.64288 0.35391 0.864 1241.733 0.02144
0.02911 0.01860 0.64270 0.64363 0.35580 1.031 1241.763 0.02146
0.02914 0.01862 0.64345 0.64437 0.35769 1.032 1241.792 0.02149
0.02918 0.01865 0.64419 0.64512 0.35957 0.993 1241.822 0.02151
0.02921 0.01867 0.64494 0.64587 0.36146 1.116 1241.852 0.02154
0.02924 0.01869 0.64569 0.64662 0.36335 0.946 1241.882 0.02156
0.02928 0.01871 0.64644 0.64737 0.36524 1.049 1241.912 0.02159
0.02931 0.01873 0.64718 0.64812 0.36713 0.896 1241.942 0.02161
0.02935 0.01875 0.64793 0.64887 0.36902 1.018 1241.972 0.02164
0.02938 0.01877 0.64868 0.64962 0.37091 0.740 1242.002 0.02166
0.02941 0.01880 0.64943 0.65037 0.37280 1.045 1242.031 0.02168
0.02945 0.01882 0.65018 0.65111 0.37469 0.932 1242.061 0.02171
0.02948 0.01884 0.65092 0.65186 0.37658 1.145 1242.091 0.02173
0.02952 0.01886 0.65167 0.65261 0.37847 1.305 1242.121 0.02176
0.02955 0.01888 0.65242 0.65336 0.38036 0.883 1242.151 0.02178
0.02958 0.01890 0.65317 0.65411 0.38225 1.147 1242.181 0.02181
0.02962 0.01893 0.65392 0.65486 0.38414 0.963 1242.211 0.02183
0.02965 0.01895 0.65466 0.65561 0.38603 0.962 1242.241 0.02186
0.02968 0.01897 0.65541 0.65636 0.38792 0.941 1242.271 0.02188
0.02972 0.01899 0.65616 0.65711 0.38981 0.899 1242.300 0.02191
0.02975 0.01901 0.65691 0.65786 0.39170 1.000 1242.330 0.02193
0.02979 0.01903 0.65766 0.65861 0.39359 0.656 1242.360 0.02196
0.02982 0.01906 0.65841 0.65936 0.39548 0.879 1242.390 0.02198
0.02985 0.01908 0.65915 0.66011 0.39737 1.161 1242.420 0.02200
0.02989 0.01910 0.65990 0.66085 0.39926 1.140 1242.450 0.02203
0.02992 0.01912 0.66065 0.66160 0.40115 0.775 1242.480 0.02205
0.02996 0.01914 0.66140 0.66235 0.40304 1.037 1242.510 0.02208
0.02999 0.01916 0.66215 0.66310 0.40493 0.977 1242.539 0.02210
0.03002 0.01919 0.66290 0.66385 0.40682 1.259 1242.569 0.02213
0.03006 0.01921 0.66364 0.66460 0.40871 0.975 1242.599 0.02215
0.03009 0.01923 0.66439 0.66535 0.41060 0.975 1242.629 0.02218
0.03013 0.01925 0.66514 0.66610 0.41249 0.995 1242.659 0.02220
0.03016 0.01927 0.66589 0.66685 0.41438 1.217 1242.689 0.02223
0.03019 0.01929 0.66664 0.66760 0.41628 1.237 1242.719 0.02225
0.03023 0.01932 0.66739 0.66835 0.41817 1.237 1242.749 0.02227
0.03026 0.01934 0.66814 0.66910 0.42006 0.915 1242.778 0.02230
0.03030 0.01936 0.66888 0.66985 0.42195 0.853 1242.808 0.02232
0.03033 0.01938 0.66963 0.67060 0.42384 0.973 1242.838 0.02235
0.03036 0.01940 0.67038 0.67135 0.42573 0.831 1242.868 0.02237
0.03040 0.01942 0.67113 0.67210 0.42762 0.811 1242.898 0.02240
0.03043 0.01945 0.67188 0.67285 0.42951 1.012 1242.928 0.02242
0.03046 0.01947 0.67263 0.67360 0.43141 1.052 1242.958 0.02245
0.03050 0.01949 0.67338 0.67435 0.43330 0.972 1242.988 0.02247
0.03053 0.01951 0.67413 0.67510 0.43519 1.111 1243.017 0.02250
0.03057 0.01953 0.67487 0.67585 0.43708 1.172 1243.047 0.02252
0.03060 0.01955 0.67562 0.67660 0.43897 0.871 1243.077 0.02254
0.03063 0.01958 0.67637 0.67735 0.44087 0.990 1243.107 0.02257
0.03067 0.01960 0.67712 0.67810 0.44276 0.790 1243.137 0.02259
0.03070 0.01962 0.67787 0.67885 0.44465 0.870 1243.167 0.02262
0.03074 0.01964 0.67862 0.67960 0.44654 1.011 1243.197 0.02264
0.03077 0.01966 0.67937 0.68035 0.44843 1.111 1243.227 0.02267
0.03080 0.01968 0.68012 0.68110 0.45033 1.331 1243.257 0.02269
0.03084 0.01971 0.68087 0.68185 0.45222 0.870 1243.286 0.02272
0.03087 0.01973 0.68161 0.68260 0.45411 1.170 1243.316 0.02274
0.03091 0.01975 0.68236 0.68335 0.45600 1.309 1243.346 0.02277
0.03094 0.01977 0.68311 0.68410 0.45790 0.949 1243.376 0.02279
0.03097 0.01979 0.68386 0.68485 0.45979 0.928 1243.406 0.02282
0.03101 0.01981 0.68461 0.68560 0.46168 1.168 1243.436 0.02284
0.03104 0.01984 0.68536 0.68635 0.46357 1.008 1243.466 0.02286
0.03108 0.01986 0.68611 0.68710 0.46547 1.008 1243.496 0.02289
0.03111 0.01988 0.68686 0.68785 0.46736 0.988 1243.525 0.02291
0.03114 0.01990 0.68761 0.68860 0.46925 1.167 1243.555 0.02294
0.03118 0.01992 0.68836 0.68935 0.47114 0.967 1243.585 0.02296
0.03121 0.01995 0.68911 0.69010 0.47304 1.206 1243.615 0.02299
0.03125 0.01997 0.68986 0.69085 0.47493 0.966 1243.645 0.02301
0.03128 0.01999 0.69061 0.69160 0.47682 1.064 1243.675 0.02304
0.03131 0.02001 0.69136 0.69235 0.47872 0.990 1243.705 0.02306
0.03135 0.02003 0.69210 0.69310 0.48061 0.748 1243.735 0.02309
0.03138 0.02005 0.69285 0.69385 0.48250 1.069 1243.764 0.02311
0.03141 0.02008 0.69360 0.69461 0.48440 0.894 1243.794 0.02313
0.03145 0.02010 0.69435 0.69536 0.48629 0.923 1243.824 0.02316
0.03148 0.02012 0.69510 0.69611 0.48818 1.057 1243.854 0.02318
0.03152 0.02014 0.69585 0.69686 0.49008 1.084 1243.884 0.02321
0.03155 0.02016 0.69660 0.69761 0.49197 0.674 1243.914 0.02323
0.03158 0.02018 0.69735 0.69836 0.49387 0.838 1243.944 0.02326
0.03162 0.02021 0.69810 0.69911 0.49576 0.900 1243.974 0.02328
0.03165 0.02023 0.69885 0.69986 0.49765 0.972 1244.003 0.02331
0.03169 0.02025 0.69960 0.70061 0.49955 0.907 1244.033 0.02333
0.03172 0.02027 0.70035 0.70136 0.50144 0.916 1244.063 0.02336
0.03175 0.02029 0.70110 0.70211 0.50334 0.952 1244.093 0.02338
0.03179 0.02031 0.70185 0.70286 0.50523 0.792 1244.123 0.02341
0.03182 0.02034 0.70260 0.70361 0.50712 1.261 1244.153 0.02343
0.03186 0.02036 0.70335 0.70437 0.50902 0.956 1244.183 0.02345
0.03189 0.02038 0.70410 0.70512 0.51091 1.148 1244.213 0.02348
0.03192 0.02040 0.70485 0.70587 0.51281 0.944 1244.243 0.02350
0.03196 0.02042 0.70560 0.70662 0.51470 0.660 1244.272 0.02353
0.03199 0.02044 0.70635 0.70737 0.51660 0.995 1244.302 0.02355
0.03203 0.02047 0.70710 0.70812 0.51849 0.857 1244.332 0.02358
0.03206 0.02049 0.70785 0.70887 0.52039 1.035 1244.362 0.02360
0.03209 0.02051 0.70860 0.70962 0.52228 1.073 1244.392 0.02363
0.03213 0.02053 0.70935 0.71037 0.52418 0.935 1244.422 0.02365
0.03216 0.02055 0.71010 0.71112 0.52607 1.289 1244.452 0.02368
0.03220 0.02057 0.71085 0.71188 0.52797 0.698 1244.482 0.02370
0.03223 0.02060 0.71160 0.71263 0.52986 0.972 1244.511 0.02372
0.03226 0.02062 0.71235 0.71338 0.53176 1.110 1244.541 0.02375
0.03230 0.02064 0.71310 0.71413 0.53365 0.913 1244.571 0.02377
0.03233 0.02066 0.71385 0.71488 0.53555 0.992 1244.601 0.02380
0.03237 0.02068 0.71460 0.71563 0.53744 1.051 1244.631 0.02382
0.03240 0.02070 0.71535 0.71638 0.53934 0.834 1244.661 0.02385
0.03243 0.02073 0.71610 0.71714 0.54123 1.247 1244.691 0.02387
0.03247 0.02075 0.71685 0.71789 0.54313 1.010 1244.721 0.02390
0.03250 0.02077 0.71760 0.71864 0.54502 0.989 1244.750 0.02392
0.03254 0.02079 0.71835 0.71939 0.54692 0.834 1244.780 0.02395
0.03257 0.02081 0.71910 0.72014 0.54882 1.187 1244.810 0.02397
0.03260 0.02083 0.71985 0.72089 0.55071 0.892 1244.840 0.02400
0.03264 0.02086 0.72060 0.72164 0.55261 0.697 1244.870 0.02402
0.03267 0.02088 0.72135 0.72240 0.55450 0.736 1244.900 0.02404
0.03271 0.02090 0.72211 0.72315 0.55640 1.028 1244.930 0.02407
0.03274 0.02092 0.72286 0.72390 0.55829 1.048 1244.960 0.02409
0.03277 0.02094 0.72361 0.72465 0.56019 0.638 1244.989 0.02412
0.03281 0.02097 0.72436 0.72540 0.56209 0.951 1245.019 0.02414
0.03284 0.02099 0.72511 0.72615 0.56398 0.812 1245.049 0.02417
0.03288 0.02101 0.72586 0.72691 0.56588 0.675 1245.079 0.02419
0.03291 0.02103 0.72661 0.72766 0.56778 0.733 1245.109 0.02422
0.03294 0.02105 0.72736 0.72841 0.56967 0.890 1245.139 0.02424
0.03298 0.02107 0.72811 0.72916 0.57157 1.045 1245.169 0.02427
0.03301 0.02110 0.72886 0.72991 0.57347 0.792 1245.199 0.02429
0.03305 0.02112 0.72961 0.73066 0.57536 0.967 1245.229 0.02431
0.03308 0.02114 0.73036 0.73142 0.57726 1.279 1245.258 0.02434
0.03311 0.02116 0.73111 0.73217 0.57916 1.317 1245.288 0.02436
0.03315 0.02118 0.73186 0.73292 0.58105 1.355 1245.318 0.02439
0.03318 0.02120 0.73262 0.73367 0.58295 0.888 1245.348 0.02441
0.03322 0.02123 0.73337 0.73442 0.58485 1.043 1245.378 0.02444
0.03325 0.02125 0.73412 0.73518 0.58674 0.925 1245.408 0.02446
0.03328 0.02127 0.73487 0.73593 0.58864 0.984 1245.438 0.02449
0.03332 0.02129 0.73562 0.73668 0.59054 0.789 1245.468 0.02451
0.03335 0.02131 0.73637 0.73743 0.59244 0.614 1245.497 0.02454
0.03339 0.02133 0.73712 0.73819 0.59433 0.808 1245.527 0.02456
