x y z dist_scaled dist_frac flux_norm wavelength redshift
-0.04327 0.03674 0.49937 0.50258 0.00000 1.033 1236.115 0.01682
-0.04333 0.03680 0.50011 0.50333 0.00188 0.820 1236.145 0.01684
-0.04339 0.03685 0.50084 0.50407 0.00375 1.017 1236.175 0.01687
-0.04346 0.03691 0.50158 0.50481 0.00563 0.901 1236.205 0.01689
-0.04352 0.03696 0.50232 0.50556 0.00751 1.111 1236.235 0.01692
-0.04359 0.03702 0.50306 0.50630 0.00938 0.864 1236.265 0.01694
-0.04365 0.03707 0.50380 0.50705 0.01126 0.956 1236.295 0.01697
-0.04371 0.03713 0.50454 0.50779 0.01313 0.968 1236.325 0.01699
-0.04378 0.03718 0.50528 0.50853 0.01501 0.916 1236.355 0.01701
-0.04384 0.03723 0.50602 0.50928 0.01689 1.128 1236.384 0.01704
-0.04391 0.03729 0.50676 0.51002 0.01876 0.747 1236.414 0.01706
-0.04397 0.03734 0.50750 0.51077 0.02064 1.142 1236.444 0.01709
-0.04403 0.03740 0.50824 0.51151 0.02252 0.946 1236.474 0.01711
-0.04410 0.03745 0.50898 0.51225 0.02440 0.914 1236.504 0.01714
-0.04416 0.03751 0.50971 0.51300 0.02627 0.846 1236.534 0.01716
-0.04423 0.03756 0.51045 0.51374 0.02815 0.882 1236.564 0.01719
-0.04429 0.03762 0.51119 0.51449 0.03003 1.239 1236.594 0.01721
-0.04435 0.03767 0.51193 0.51523 0.03190 0.948 1236.623 0.01724
-0.04442 0.03772 0.51267 0.51597 0.03378 0.859 1236.653 0.01726
-0.04448 0.03778 0.51341 0.51672 0.03566 1.106 1236.683 0.01729
-0.04455 0.03783 0.51415 0.51746 0.03754 0.859 1236.713 0.01731
-0.04461 0.03789 0.51489 0.51821 0.03941 1.141 1236.743 0.01733
-0.04468 0.03794 0.51563 0.51895 0.04129 1.170 1236.773 0.01736
-0.04474 0.03800 0.51637 0.51970 0.04317 0.910 1236.803 0.01738
-0.04480 0.03805 0.51711 0.52044 0.04505 1.000 1236.833 0.01741
-0.04487 0.03810 0.51785 0.52118 0.04692 1.043 1236.862 0.01743
-0.04493 0.03816 0.51859 0.52193 0.04880 1.174 1236.892 0.01746
-0.04500 0.03821 0.51933 0.52267 0.05068 0.936 1236.922 0.01748
-0.04506 0.03827 0.52007 0.52342 0.05256 0.925 1236.952 0.01751
-0.04512 0.03832 0.52081 0.52416 0.05444 1.147 1236.982 0.01753
-0.04519 0.03838 0.52155 0.52491 0.05631 1.027 1237.012 0.01756
-0.04525 0.03843 0.52229 0.52565 0.05819 0.974 1237.042 0.01758
-0.04532 0.03849 0.52303 0.52640 0.06007 1.214 1237.072 0.01760
-0.04538 0.03854 0.52377 0.52714 0.06195 1.068 1237.101 0.01763
-0.04544 0.03859 0.52451 0.52788 0.06383 0.963 1237.131 0.01765
-0.04551 0.03865 0.52525 0.52863 0.06571 0.910 1237.161 0.01768
-0.04557 0.03870 0.52599 0.52937 0.06758 0.951 1237.191 0.01770
-0.04564 0.03876 0.52673 0.53012 0.06946 0.910 1237.221 0.01773
-0.04570 0.03881 0.52747 0.53086 0.07134 0.964 1237.251 0.01775
-0.04576 0.03887 0.52821 0.53161 0.07322 0.992 1237.281 0.01778
-0.04583 0.03892 0.52895 0.53235 0.07510 1.034 1237.311 0.01780
-0.04589 0.03898 0.52969 0.53310 0.07698 0.968 1237.341 0.01783
-0.04596 0.03903 0.53043 0.53384 0.07886 1.007 1237.370 0.01785
-0.04602 0.03908 0.53117 0.53459 0.08074 1.128 1237.400 0.01788
-0.04609 0.03914 0.53191 0.53533 0.08261 0.888 1237.430 0.01790
-0.04615 0.03919 0.53265 0.53608 0.08449 1.143 1237.460 0.01792
-0.04621 0.03925 0.53339 0.53682 0.08637 0.996 1237.490 0.01795
-0.04628 0.03930 0.53413 0.53757 0.08825 0.970 1237.520 0.01797
-0.04634 0.03936 0.53487 0.53831 0.09013 0.928 1237.550 0.01800
-0.04641 0.03941 0.53561 0.53906 0.09201 1.037 1237.580 0.01802
-0.04647 0.03947 0.53635 0.53980 0.09389 0.822 1237.609 0.01805
-0.04653 0.03952 0.53709 0.54055 0.09577 1.024 1237.639 0.01807
-0.04660 0.03958 0.53783 0.54129 0.09765 1.012 1237.669 0.01810
-0.04666 0.03963 0.53857 0.54204 0.09953 0.892 1237.699 0.01812
-0.04673 0.03968 0.53931 0.54278 0.10141 0.879 1237.729 0.01815
-0.04679 0.03974 0.54005 0.54353 0.10329 1.040 1237.759 0.01817
-0.04686 0.03979 0.54079 0.54427 0.10517 0.974 1237.789 0.01819
-0.04692 0.03985 0.54153 0.54502 0.10705 1.002 1237.819 0.01822
-0.04698 0.03990 0.54227 0.54576 0.10893 1.070 1237.848 0.01824
-0.04705 0.03996 0.54301 0.54651 0.11081 1.057 1237.878 0.01827
-0.04711 0.04001 0.54375 0.54725 0.11269 0.732 1237.908 0.01829
-0.04718 0.04007 0.54449 0.54800 0.11457 1.140 1237.938 0.01832
-0.04724 0.04012 0.54523 0.54874 0.11645 0.990 1237.968 0.01834
-0.04730 0.04017 0.54597 0.54949 0.11833 1.181 1237.998 0.01837
-0.04737 0.04023 0.54672 0.55024 0.12021 1.045 1238.028 0.01839
-0.04743 0.04028 0.54746 0.55098 0.12209 0.856 1238.058 0.01842
-0.04750 0.04034 0.54820 0.55173 0.12397 0.980 1238.087 0.01844
-0.04756 0.04039 0.54894 0.55247 0.12585 0.925 1238.117 0.01847
-0.04763 0.04045 0.54968 0.55322 0.12773 0.964 1238.147 0.01849
-0.04769 0.04050 0.55042 0.55396 0.12961 0.966 1238.177 0.01851
-0.04775 0.04056 0.55116 0.55471 0.13149 1.129 1238.207 0.01854
-0.04782 0.04061 0.55190 0.55545 0.13338 1.036 1238.237 0.01856
-0.04788 0.04067 0.55264 0.55620 0.13526 1.268 1238.267 0.01859
-0.04795 0.04072 0.55338 0.55695 0.13714 1.133 1238.297 0.01861
-0.04801 0.04077 0.55412 0.55769 0.13902 0.996 1238.327 0.01864
-0.04807 0.04083 0.55486 0.55844 0.14090 1.052 1238.356 0.01866
-0.04814 0.04088 0.55560 0.55918 0.14278 1.147 1238.386 0.01869
-0.04820 0.04094 0.55635 0.55993 0.14466 1.038 1238.416 0.01871
-0.04827 0.04099 0.55709 0.56067 0.14654 1.068 1238.446 0.01874
-0.04833 0.04105 0.55783 0.56142 0.14843 0.836 1238.476 0.01876
-0.04840 0.04110 0.55857 0.56217 0.15031 1.123 1238.506 0.01878
-0.04846 0.04116 0.55931 0.56291 0.15219 1.083 1238.536 0.01881
-0.04852 0.04121 0.56005 0.56366 0.15407 0.974 1238.566 0.01883
-0.04859 0.04126 0.56079 0.56440 0.15595 1.028 1238.595 0.01886
-0.04865 0.04132 0.56153 0.56515 0.15783 0.975 1238.625 0.01888
-0.04872 0.04137 0.56227 0.56590 0.15972 0.989 1238.655 0.01891
-0.04878 0.04143 0.56302 0.56664 0.16160 1.032 1238.685 0.01893
-0.04885 0.04148 0.56376 0.56739 0.16348 0.824 1238.715 0.01896
-0.04891 0.04154 0.56450 0.56813 0.16536 0.785 1238.745 0.01898
-0.04897 0.04159 0.56524 0.56888 0.16724 0.728 1238.775 0.01901
-0.04904 0.04165 0.56598 0.56963 0.16913 0.880 1238.805 0.01903
-0.04910 0.04170 0.56672 0.57037 0.17101 0.977 1238.834 0.01905
-0.04917 0.04176 0.56746 0.57112 0.17289 1.003 1238.864 0.01908
-0.04923 0.04181 0.56821 0.57186 0.17477 0.897 1238.894 0.01910
-0.04929 0.04186 0.56895 0.57261 0.17665 0.964 1238.924 0.01913
-0.04936 0.04192 0.56969 0.57336 0.17854 0.839 1238.954 0.01915
-0.04942 0.04197 0.57043 0.57410 0.18042 0.855 1238.984 0.01918
-0.04949 0.04203 0.57117 0.57485 0.18230 1.144 1239.014 0.01920
-0.04955 0.04208 0.57191 0.57560 0.18419 1.215 1239.044 0.01923
-0.04962 0.04214 0.57265 0.57634 0.18607 1.050 1239.073 0.01925
-0.04968 0.04219 0.57340 0.57709 0.18795 1.161 1239.103 0.01928
-0.04974 0.04225 0.57414 0.57784 0.18983 0.831 1239.133 0.01930
-0.04981 0.04230 0.57488 0.57858 0.19172 1.148 1239.163 0.01933
-0.04987 0.04236 0.57562 0.57933 0.19360 1.273 1239.193 0.01935
-0.04994 0.04241 0.57636 0.58007 0.19548 0.883 1239.223 0.01937
-0.05000 0.04247 0.57710 0.58082 0.19737 1.067 1239.253 0.01940
-0.05007 0.04252 0.57785 0.58157 0.19925 1.185 1239.283 0.01942
-0.05013 0.04257 0.57859 0.58231 0.20113 1.023 1239.313 0.01945
-0.05019 0.04263 0.57933 0.58306 0.20302 0.972 1239.342 0.01947
-0.05026 0.04268 0.58007 0.58381 0.20490 0.937 1239.372 0.01950
-0.05032 0.04274 0.58081 0.58455 0.20678 0.979 1239.402 0.01952
-0.05039 0.04279 0.58156 0.58530 0.20867 0.927 1239.432 0.01955
-0.05045 0.04285 0.58230 0.58605 0.21055 1.113 1239.462 0.01957
-0.05052 0.04290 0.58304 0.58679 0.21243 0.913 1239.492 0.01960
-0.05058 0.04296 0.58378 0.58754 0.21432 0.796 1239.522 0.01962
-0.05064 0.04301 0.58452 0.58829 0.21620 1.009 1239.552 0.01964
-0.05071 0.04307 0.58527 0.58904 0.21809 1.070 1239.581 0.01967
-0.05077 0.04312 0.58601 0.58978 0.21997 1.038 1239.611 0.01969
-0.05084 0.04317 0.58675 0.59053 0.22185 1.002 1239.641 0.01972
-0.05090 0.04323 0.58749 0.59128 0.22374 0.962 1239.671 0.01974
-0.05097 0.04328 0.58823 0.59202 0.22562 0.949 1239.701 0.01977
-0.05103 0.04334 0.58898 0.59277 0.22751 0.850 1239.731 0.01979
-0.05109 0.04339 0.58972 0.59352 0.22939 0.991 1239.761 0.01982
-0.05116 0.04345 0.59046 0.59426 0.23128 0.837 1239.791 0.01984
-0.05122 0.04350 0.59120 0.59501 0.23316 1.032 1239.820 0.01987
-0.05129 0.04356 0.59195 0.59576 0.23504 0.922 1239.850 0.01989
-0.05135 0.04361 0.59269 0.59650 0.23693 1.187 1239.880 0.01992
-0.05142 0.04367 0.59343 0.59725 0.23881 1.018 1239.910 0.01994
-0.05148 0.04372 0.59417 0.59800 0.24070 1.033 1239.940 0.01996
-0.05154 0.04378 0.59491 0.59875 0.24258 1.228 1239.970 0.01999
-0.05161 0.04383 0.59566 0.59949 0.24447 0.963 1240.000 0.02001
-0.05167 0.04388 0.59640 0.60024 0.24635 1.005 1240.030 0.02004
-0.05174 0.04394 0.59714 0.60099 0.24824 1.089 1240.059 0.02006
-0.05180 0.04399 0.59788 0.60174 0.25012 0.950 1240.089 0.02009
-0.05187 0.04405 0.59863 0.60248 0.25201 0.976 1240.119 0.02011
-0.05193 0.04410 0.59937 0.60323 0.25389 0.894 1240.149 0.02014
-0.05200 0.04416 0.60011 0.60398 0.25578 0.798 1240.179 0.02016
-0.05206 0.04421 0.60086 0.60472 0.25766 0.896 1240.209 0.02019
-0.05212 0.04427 0.60160 0.60547 0.25955 0.798 1240.239 0.02021
-0.05219 0.04432 0.60234 0.60622 0.26144 1.107 1240.269 0.02023
-0.05225 0.04438 0.60308 0.60697 0.26332 0.949 1240.299 0.02026
-0.05232 0.04443 0.60383 0.60771 0.26521 0.799 1240.328 0.02028
-0.05238 0.04449 0.60457 0.60846 0.26709 0.728 1240.358 0.02031
-0.05245 0.04454 0.60531 0.60921 0.26898 0.743 1240.388 0.02033
-0.05251 0.04460 0.60605 0.60996 0.27086 0.966 1240.418 0.02036
-0.05257 0.04465 0.60680 0.61070 0.27275 1.403 1240.448 0.02038
-0.05264 0.04470 0.60754 0.61145 0.27464 0.968 1240.478 0.02041
-0.05270 0.04476 0.60828 0.61220 0.27652 0.953 1240.508 0.02043
-0.05277 0.04481 0.60903 0.61295 0.27841 1.050 1240.538 0.02046
-0.05283 0.04487 0.60977 0.61370 0.28029 1.150 1240.567 0.02048
-0.05290 0.04492 0.61051 0.61444 0.28218 0.927 1240.597 0.02050
-0.05296 0.04498 0.61125 0.61519 0.28407 0.716 1240.627 0.02053
-0.05302 0.04503 0.61200 0.61594 0.28595 0.855 1240.657 0.02055
-0.05309 0.04509 0.61274 0.61669 0.28784 1.081 1240.687 0.02058
-0.05315 0.04514 0.61348 0.61743 0.28973 0.899 1240.717 0.02060
-0.05322 0.04520 0.61423 0.61818 0.29161 1.109 1240.747 0.02063
-0.05328 0.04525 0.61497 0.61893 0.29350 0.914 1240.777 0.02065
-0.05335 0.04531 0.61571 0.61968 0.29539 0.774 1240.806 0.02068
-0.05341 0.04536 0.61646 0.62043 0.29727 0.857 1240.836 0.02070
-0.05348 0.04542 0.61720 0.62117 0.29916 0.942 1240.866 0.02073
-0.05354 0.04547 0.61794 0.62192 0.30105 1.125 1240.896 0.02075
-0.05360 0.04552 0.61869 0.62267 0.30293 1.012 1240.926 0.02078
-0.05367 0.04558 0.61943 0.62342 0.30482 0.873 1240.956 0.02080
-0.05373 0.04563 0.62017 0.62417 0.30671 0.873 1240.986 0.02082
-0.05380 0.04569 0.62092 0.62491 0.30859 0.760 1241.016 0.02085
-0.05386 0.04574 0.62166 0.62566 0.31048 0.802 1241.045 0.02087
-0.05393 0.04580 0.62240 0.62641 0.31237 0.874 1241.075 0.02090
-0.05399 0.04585 0.62315 0.62716 0.31426 0.718 1241.105 0.02092
-0.05406 0.04591 0.62389 0.62791 0.31614 1.128 1241.135 0.02095
-0.05412 0.04596 0.62463 0.62866 0.31803 0.989 1241.165 0.02097
-0.05418 0.04602 0.62538 0.62940 0.31992 0.817 1241.195 0.02100
-0.05425 0.04607 0.62612 0.63015 0.32181 0.776 1241.225 0.02102
-0.05431 0.04613 0.62686 0.63090 0.32369 1.053 1241.255 0.02105
-0.05438 0.04618 0.62761 0.63165 0.32558 1.098 1241.285 0.02107
-0.05444 0.04624 0.62835 0.63240 0.32747 0.938 1241.314 0.02109
-0.05451 0.04629 0.62909 0.63315 0.32936 1.033 1241.344 0.02112
-0.05457 0.04635 0.62984 0.63389 0.33125 0.741 1241.374 0.02114
-0.05463 0.04640 0.63058 0.63464 0.33313 0.986 1241.404 0.02117
-0.05470 0.04645 0.63132 0.63539 0.33502 0.845 1241.434 0.02119
-0.05476 0.04651 0.63207 0.63614 0.33691 0.848 1241.464 0.02122
-0.05483 0.04656 0.63281 0.63689 0.33880 0.677 1241.494 0.02124
-0.05489 0.04662 0.63356 0.63764 0.34069 0.924 1241.524 0.02127
-0.05496 0.04667 0.63430 0.63838 0.34258 0.938 1241.553 0.02129
-0.05502 0.04673 0.63504 0.63913 0.34446 0.771 1241.583 0.02132
-0.05509 0.04678 0.63579 0.63988 0.34635 0.945 1241.613 0.02134
-0.05515 0.04684 0.63653 0.64063 0.34824 0.805 1241.643 0.02137
-0.05521 0.04689 0.63728 0.64138 0.35013 0.938 1241.673 0.02139
-0.05528 0.04695 0.63802 0.64213 0.35202 0.672 1241.703 0.02141
-0.05534 0.04700 0.63876 0.64288 0.35391 0.873 1241.733 0.02144
-0.05541 0.04706 0.63951 0.64363 0.35580 0.833 1241.763 0.02146
-0.05547 0.04711 0.64025 0.64437 0.35769 0.947 1241.792 0.02149
-0.05554 0.04717 0.64100 0.64512 0.35957 0.714 1241.822 0.02151
-0.05560 0.04722 0.64174 0.64587 0.36146 0.935 1241.852 0.02154
-0.05567 0.04728 0.64248 0.64662 0.36335 0.834 1241.882 0.02156
-0.05573 0.04733 0.64323 0.64737 0.36524 1.115 1241.912 0.02159
-0.05580 0.04739 0.64397 0.64812 0.36713 0.795 1241.942 0.02161
-0.05586 0.04744 0.64472 0.64887 0.36902 0.715 1241.972 0.02164
-0.05592 0.04749 0.64546 0.64962 0.37091 0.773 1242.002 0.02166
-0.05599 0.04755 0.64620 0.65037 0.37280 0.773 1242.031 0.02168
-0.05605 0.04760 0.64695 0.65111 0.37469 0.432 1242.061 0.02171
-0.05612 0.04766 0.64769 0.65186 0.37658 0.513 1242.091 0.02173
-0.05618 0.04771 0.64844 0.65261 0.37847 0.573 1242.121 0.02176
-0.05625 0.04777 0.64918 0.65336 0.38036 0.391 1242.151 0.02178
-0.05631 0.04782 0.64993 0.65411 0.38225 0.679 1242.181 0.02181
-0.05638 0.04788 0.65067 0.65486 0.38414 0.989 1242.211 0.02183
-0.05644 0.04793 0.65141 0.65561 0.38603 0.808 1242.241 0.02186
-0.05650 0.04799 0.65216 0.65636 0.38792 0.934 1242.271 0.02188
-0.05657 0.04804 0.65290 0.65711 0.38981 0.849 1242.300 0.02191
-0.05663 0.04810 0.65365 0.65786 0.39170 1.031 1242.330 0.02193
-0.05670 0.04815 0.65439 0.65861 0.39359 0.976 1242.360 0.02196
-0.05676 0.04821 0.65514 0.65936 0.39548 1.019 1242.390 0.02198
-0.05683 0.04826 0.65588 0.66011 0.39737 1.074 1242.420 0.02200
-0.05689 0.04832 0.65663 0.66085 0.39926 0.734 1242.450 0.02203
-0.05696 0.04837 0.65737 0.66160 0.40115 1.188 1242.480 0.02205
-0.05702 0.04843 0.65812 0.66235 0.40304 0.977 1242.510 0.02208
-0.05709 0.04848 0.65886 0.66310 0.40493 0.833 1242.539 0.02210
-0.05715 0.04854 0.65960 0.66385 0.40682 0.777 1242.569 0.02213
-0.05721 0.04859 0.66035 0.66460 0.40871 0.806 1242.599 0.02215
-0.05728 0.04865 0.66109 0.66535 0.41060 0.861 1242.629 0.02218
-0.05734 0.04870 0.66184 0.66610 0.41249 0.747 1242.659 0.02220
-0.05741 0.04875 0.66258 0.66685 0.41438 0.821 1242.689 0.02223
-0.05747 0.04881 0.66333 0.66760 0.41628 0.749 1242.719 0.02225
-0.05754 0.04886 0.66407 0.66835 0.41817 0.987 1242.749 0.02227
-0.05760 0.04892 0.66482 0.66910 0.42006 1.015 1242.778 0.02230
-0.05767 0.04897 0.66556 0.66985 0.42195 0.763 1242.808 0.02232
-0.05773 0.04903 0.66631 0.67060 0.42384 1.002 1242.838 0.02235
-0.05779 0.04908 0.66705 0.67135 0.42573 1.016 1242.868 0.02237
-0.05786 0.04914 0.66780 0.67210 0.42762 0.987 1242.898 0.02240
-0.05792 0.04919 0.66854 0.67285 0.42951 1.016 1242.928 0.02242
-0.05799 0.04925 0.66929 0.67360 0.43141 1.185 1242.958 0.02245
-0.05805 0.04930 0.67003 0.67435 0.43330 1.027 1242.988 0.02247
-0.05812 0.04936 0.67078 0.67510 0.43519 1.045 1243.017 0.02250
-0.05818 0.04941 0.67152 0.67585 0.43708 1.145 1243.047 0.02252
-0.05825 0.04947 0.67227 0.67660 0.43897 1.102 1243.077 0.02254
-0.05831 0.04952 0.67301 0.67735 0.44087 1.031 1243.107 0.02257
-0.05838 0.04958 0.67376 0.67810 0.44276 1.003 1243.137 0.02259
-0.05844 0.04963 0.67450 0.67885 0.44465 0.902 1243.167 0.02262
-0.05851 0.04969 0.67525 0.67960 0.44654 0.975 1243.197 0.02264
-0.05857 0.04974 0.67599 0.68035 0.44843 1.200 1243.227 0.02267
-0.05863 0.04980 0.67674 0.68110 0.45033 1.186 1243.257 0.02269
-0.05870 0.04985 0.67749 0.68185 0.45222 1.132 1243.286 0.02272
-0.05876 0.04991 0.67823 0.68260 0.45411 0.877 1243.316 0.02274
-0.05883 0.04996 0.67898 0.68335 0.45600 0.918 1243.346 0.02277
-0.05889 0.05002 0.67972 0.68410 0.45790 0.945 1243.376 0.02279
-0.05896 0.05007 0.68047 0.68485 0.45979 0.989 1243.406 0.02282
-0.05902 0.05013 0.68121 0.68560 0.46168 1.058 1243.436 0.02284
-0.05909 0.05018 0.68196 0.68635 0.46357 0.990 1243.466 0.02286
-0.05915 0.05024 0.68270 0.68710 0.46547 0.974 1243.496 0.02289
-0.05922 0.05029 0.68345 0.68785 0.46736 0.946 1243.525 0.02291
-0.05928 0.05035 0.68419 0.68860 0.46925 0.821 1243.555 0.02294
-0.05934 0.05040 0.68494 0.68935 0.47114 1.002 1243.585 0.02296
-0.05941 0.05045 0.68569 0.69010 0.47304 0.919 1243.615 0.02299
-0.05947 0.05051 0.68643 0.69085 0.47493 1.101 1243.645 0.02301
-0.05954 0.05056 0.68718 0.69160 0.47682 1.328 1243.675 0.02304
-0.05960 0.05062 0.68792 0.69235 0.47872 0.972 1243.705 0.02306
-0.05967 0.05067 0.68867 0.69310 0.48061 0.874 1243.735 0.02309
-0.05973 0.05073 0.68941 0.69385 0.48250 0.961 1243.764 0.02311
-0.05980 0.05078 0.69016 0.69461 0.48440 0.748 1243.794 0.02313
-0.05986 0.05084 0.69091 0.69536 0.48629 1.030 1243.824 0.02316
-0.05993 0.05089 0.69165 0.69611 0.48818 1.028 1243.854 0.02318
-0.05999 0.05095 0.69240 0.69686 0.49008 0.844 1243.884 0.02321
-0.06006 0.05100 0.69314 0.69761 0.49197 1.336 1243.914 0.02323
-0.06012 0.05106 0.69389 0.69836 0.49387 0.986 1243.944 0.02326
-0.06018 0.05111 0.69464 0.69911 0.49576 1.127 1243.974 0.02328
-0.06025 0.05117 0.69538 0.69986 0.49765 0.885 1244.003 0.02331
-0.06031 0.05122 0.69613 0.70061 0.49955 1.040 1244.033 0.02333
-0.06038 0.05128 0.69687 0.70136 0.50144 0.978 1244.063 0.02336
-0.06044 0.05133 0.69762 0.70211 0.50334 0.964 1244.093 0.02338
-0.06051 0.05139 0.69837 0.70286 0.50523 1.030 1244.123 0.02341
-0.06057 0.05144 0.69911 0.70361 0.50712 1.045 1244.153 0.02343
-0.06064 0.05150 0.69986 0.70437 0.50902 0.966 1244.183 0.02345
-0.06070 0.05155 0.70060 0.70512 0.51091 0.904 1244.213 0.02348
-0.06077 0.05161 0.70135 0.70587 0.51281 0.907 1244.243 0.02350
-0.06083 0.05166 0.70210 0.70662 0.51470 1.097 1244.272 0.02353
-0.06090 0.05172 0.70284 0.70737 0.51660 0.719 1244.302 0.02355
-0.06096 0.05177 0.70359 0.70812 0.51849 0.858 1244.332 0.02358
-0.06103 0.05183 0.70434 0.70887 0.52039 0.791 1244.362 0.02360
-0.06109 0.05188 0.70508 0.70962 0.52228 0.735 1244.392 0.02363
-0.06115 0.05194 0.70583 0.71037 0.52418 0.847 1244.422 0.02365
-0.06122 0.05199 0.70657 0.71112 0.52607 1.069 1244.452 0.02368
-0.06128 0.05205 0.70732 0.71188 0.52797 0.714 1244.482 0.02370
-0.06135 0.05210 0.70807 0.71263 0.52986 0.871 1244.511 0.02372
-0.06141 0.05216 0.70881 0.71338 0.53176 0.749 1244.541 0.02375
-0.06148 0.05221 0.70956 0.71413 0.53365 0.976 1244.571 0.02377
-0.06154 0.05227 0.71031 0.71488 0.53555 0.621 1244.601 0.02380
-0.06161 0.05232 0.71105 0.71563 0.53744 0.621 1244.631 0.02382
-0.06167 0.05238 0.71180 0.71638 0.53934 0.657 1244.661 0.02385
-0.06174 0.05243 0.71255 0.71714 0.54123 0.567 1244.691 0.02387
-0.06180 0.05249 0.71329 0.71789 0.54313 0.617 1244.721 0.02390
-0.06187 0.05254 0.71404 0.71864 0.54502 0.709 1244.750 0.02392
-0.06193 0.05260 0.71479 0.71939 0.54692 0.989 1244.780 0.02395
-0.06200 0.05265 0.71553 0.72014 0.54882 0.796 1244.810 0.02397
-0.06206 0.05271 0.71628 0.72089 0.55071 0.764 1244.840 0.02400
-0.06212 0.05276 0.71703 0.72164 0.55261 0.803 1244.870 0.02402
-0.06219 0.05282 0.71777 0.72240 0.55450 0.932 1244.900 0.02404
-0.06225 0.05287 0.71852 0.72315 0.55640 0.898 1244.930 0.02407
-0.06232 0.05293 0.71927 0.72390 0.55829 0.829 1244.960 0.02409
-0.06238 0.05298 0.72001 0.72465 0.56019 0.996 1244.989 0.02412
-0.06245 0.05304 0.72076 0.72540 0.56209 0.920 1245.019 0.02414
-0.06251 0.05309 0.72151 0.72615 0.56398 1.038 1245.049 0.02417
-0.06258 0.05315 0.72225 0.72691 0.56588 0.950 1245.079 0.02419
-0.06264 0.05320 0.72300 0.72766 0.56778 1.057 1245.109 0.02422
-0.06271 0.05326 0.72375 0.72841 0.56967 1.087 1245.139 0.02424
-0.06277 0.05331 0.72450 0.72916 0.57157 0.961 1245.169 0.02427
-0.06284 0.05337 0.72524 0.72991 0.57347 0.856 1245.199 0.02429
-0.06290 0.05342 0.72599 0.73066 0.57536 0.972 1245.229 0.02431
-0.06297 0.05348 0.72674 0.73142 0.57726 0.967 1245.258 0.02434
-0.06303 0.05353 0.72748 0.73217 0.57916 0.875 1245.288 0.02436
-0.06310 0.05359 0.72823 0.73292 0.58105 1.053 1245.318 0.02439
-0.06316 0.05364 0.72898 0.73367 0.58295 1.178 1245.348 0.02441
-0.06322 0.05370 0.72973 0.73442 0.58485 0.958 1245.378 0.02444
